z,T,t,fs,x,y,w,rhob,p
0.0,556.244614709574,298.0,0.0,0.22647899222836607,0.2675210077716339,0.35471955893641804,2200.0,2040.0
0.0017416387959866223,572.4046338729399,335.2386761979261,3.2258102448617227e-07,0.22647910893864806,0.2675208910613519,0.35471955893641804,2199.9997953085153,2043.5935015566777
0.0034832775919732446,587.1810165864148,369.06607820477626,1.1773308617221733e-06,0.22647941818837752,0.26752058181162247,0.35471955893641804,2199.999252933111,2047.3427919238122
0.006966555183946489,613.1351109018458,427.9907481647361,6.057262658051123e-06,0.2264811837547714,0.2675188162452286,0.35471955893641804,2199.9961564072464,2055.2592153245855
0.010449832775919734,635.0430290546749,477.26370300769713,1.7884315873661907e-05,0.22648546279975962,0.2675145372002404,0.35471955893641804,2199.9886516351075,2063.659038297662
0.013933110367892979,653.6272666418714,518.7412294097486,3.930901920968157e-05,0.22649321428846636,0.26750678571153363,0.35471955893641804,2199.975056742639,2072.4649074367967
0.020899665551839468,682.9828287307851,583.6783496045654,0.00011658714804934987,0.2265211736274398,0.2674788263725602,0.35471955893641804,2199.9260204579705,2091.039484072797
0.027866220735785957,704.535019795753,630.9030117064666,0.00024141163251019607,0.2265663353067613,0.2674336646932387,0.35471955893641804,2199.8468139729594,2110.5595548833885
0.034832775919732446,720.5014097482865,665.630046197723,0.00040993784601851466,0.22662730833496647,0.2673726916650335,0.35471955893641804,2199.739876867937,2130.7152519631827
0.041799331103678936,732.4100766741847,691.3702081481348,0.0006159123604746645,0.22670183021270907,0.267298169787291,0.35471955893641804,2199.609177211035,2151.279705924367
0.048765886287625425,741.3402246522721,710.5616775892348,0.000852982922135785,0.2267876026853818,0.2672123973146182,0.35471955893641804,2199.4587457794937,2172.0869191860647
0.055732441471571914,748.0676821349153,724.9358334356581,0.001115546495219362,0.22688259856652104,0.26711740143347895,0.35471955893641804,2199.292137939648,2193.0156344685456
0.0626989966555184,753.157430718099,735.7421352051205,0.001398956243955878,0.22698513662421307,0.2670148633757869,0.35471955893641804,2199.112302307942,2213.977541798755
0.06966555183946489,757.0248147664639,743.89295599082,0.0016994775196303381,0.22709386565714215,0.2669061343428578,0.35471955893641804,2198.921608679044,2234.908628612586
0.07663210702341139,759.9773013742893,750.0603193348379,0.0020141610354455844,0.22720771860907218,0.2667922813909278,0.35471955893641804,2198.7219285018227,2255.762816149338
0.08359866220735787,762.2436646269568,754.7423821806362,0.002340701970078153,0.22732586159230916,0.2666741384076909,0.3547195589364181,2198.5147242841867,2276.5072662335415
0.09056521739130435,763.9947655633345,758.310155363,0.0026773109121022813,0.22744764719520671,0.2665523528047933,0.3547195589364181,2198.3011314843748,2297.118913292245
0.09753177257525085,765.35856266787,761.0409093377241,0.003022604508024399,0.22757257491846677,0.2664274250815332,0.3547195589364181,2198.082027899465,2317.5818980621343
0.10449832775919735,766.4310751344499,763.1423808255269,0.003375516348181867,0.22770025893352835,0.26629974106647164,0.3547195589364181,2197.858090212092,2337.8856666493357
0.11146488294314383,767.2844577793833,764.7704940609916,0.0037352259172045784,0.22783040237674182,0.2661695976232582,0.3547195589364181,2197.6298390744228,2358.023561580858
0.11843143812709031,767.9729865548783,766.0424357369619,0.004101102693245097,0.22796277712438925,0.26603722287561077,0.35471955893641816,2197.397674579592,2377.9917772457584
0.1253979933110368,768.5375165968837,767.0463589074692,0.004472662538569285,0.22809720801473707,0.26590279198526295,0.35471955893641816,2197.1619039337406,2397.7885855474133
0.1323645484949833,769.0088144970297,767.848616955954,0.004849533872855404,0.2282335606094865,0.2657664393905135,0.35471955893641816,2196.922762920507,2417.4137621063796
0.13933110367892979,769.4100556832436,768.4991741285398,0.005231431539392521,0.2283717317385264,0.2656282682614736,0.3547195589364182,2196.6804324840464,2436.8681614014276
0.14629765886287627,769.7586997141645,769.0356621275951,0.005618136673012125,0.22851164221612172,0.2654883577838783,0.3547195589364182,2196.4350515036876,2456.1534025586184
0.15326421404682278,770.0679004121059,769.4864269853695,0.006009481224893692,0.2286532312419657,0.2653467687580343,0.3547195589364182,2196.1867266136096,2475.271637353775
0.16023076923076926,770.3475672614561,769.8728204642399,0.006405336086701775,0.22879645210447558,0.2652035478955244,0.3547195589364182,2195.935539738584,2494.2253792971032
0.16719732441471574,770.6051648553619,770.2109248440012,0.0068056019886998925,0.22894126888771688,0.2650587311122831,0.35471955893641827,2195.681553869513,2513.017378088094
0.17416387959866222,770.8463153041537,770.512851992506,0.007210202531092197,0.22908765395013272,0.2649123460498673,0.35471955893641827,2195.4248174853424,2531.650527754436
0.1811304347826087,771.0752522874354,770.787722174032,0.007619078853060039,0.22923558599579366,0.2647644140042063,0.35471955893641827,2195.1653679357823,2550.1277997811994
0.18809698996655522,771.295163328912,771.0424017130495,0.00803218555735906,0.22938504859991093,0.26461495140008906,0.3547195589364183,2194.9032340273316,2568.452194762509
0.1950635451505017,771.5084478171879,771.2820589763626,0.00844948759643628,0.2295360290822291,0.2644639709177709,0.3547195589364183,2194.638437999164,2586.62670776433
0.20203010033444818,771.7169115021682,771.5105834211962,0.00887095789420231,0.22968851764657977,0.2643114823534203,0.3547195589364183,2194.370997032219,2604.6543038199384
0.2089966555183947,771.9219130904553,771.7309014129668,0.009296575530204064,0.22984250672391268,0.2641574932760873,0.3547195589364184,2194.10092440142,2622.53790089755
0.21596321070234117,772.1244747198253,771.9452142135698,0.009726324353452071,0.22999799047077651,0.2640020095292235,0.3547195589364184,2193.8282303552623,2640.280358363016
0.22292976588628766,772.3253651973013,772.1551772908713,0.010160191924292798,0.23015496438648655,0.2638450356135134,0.35471955893641843,2193.55292278724,2657.8844694692934
0.22989632107023414,772.5251627023443,772.3620353910104,0.010598168706614593,0.23031342502086383,0.26368657497913617,0.35471955893641843,2193.2750077484225,2675.352956783196
0.23686287625418062,772.7243020101739,772.5667242650105,0.011040247450997274,0.23047336975105756,0.26352663024894246,0.35471955893641843,2192.99448983888,2692.6884697418686
0.2438294314381271,772.9231100480503,772.7699472637856,0.01148642272344697,0.23063479661104092,0.2633652033889591,0.3547195589364185,2192.7113725067134,2709.8935837412128
0.2507959866220736,773.1218326600929,772.9722329959473,0.011936690545095044,0.23079770416125348,0.26320229583874655,0.3547195589364185,2192.425658276685,2726.97080031453
0.2577625418060201,773.3206547490021,773.1739787191514,0.012391048116449841,0.23096209138883506,0.26303790861116494,0.35471955893641854,2192.1373489251932,2743.922548075682
0.2647290969899666,773.5197154294669,773.3754829862598,0.012849493606063035,0.23112795763116506,0.26287204236883494,0.35471955893641854,2191.84644561437,2760.7511841872383
0.2716956521739131,773.7191194254959,773.5769702004789,0.013312025988262751,0.23129530251715386,0.26270469748284614,0.35471955893641854,2191.552948995048,2777.4589961781135
0.27866220735785957,773.9189456402629,773.7786090796203,0.013778644918261437,0.23146412592205687,0.26253587407794315,0.3547195589364186,2191.2568592860093,2794.048203982629
0.285628762541806,774.1192535980736,773.9805265364074,0.01424935063573493,0.23163442793258912,0.2623655720674109,0.3547195589364186,2190.9581763351703,2810.5209621081362
0.29259531772575254,774.3200882853947,774.1828181098695,0.014724143890095173,0.23180620881988895,0.26219379118011105,0.35471955893641866,2190.656899666996,2826.8793618643354
0.29956187290969905,774.5214837877402,774.3855558025386,0.015203025882298896,0.23197946901846425,0.26202053098153577,0.35471955893641866,2190.3530285194292,2843.12543360664
0.30652842809364556,774.723466021115,774.5887939668961,0.015685998219268502,0.23215420910970186,0.26184579089029814,0.3547195589364187,2190.0465618728076,2859.261148960101
0.31349498327759207,774.926054782822,774.7925737253336,0.016173062877940684,0.23233042980886037,0.2616695701911397,0.3547195589364187,2189.7374984726803,2875.2884230008012
0.3204615384615385,775.129265290768,774.996926287999,0.016664222176673172,0.23250813195472492,0.2614918680452751,0.35471955893641877,2189.4258368479504,2891.2091163792293
0.327428093645485,775.3331093384838,775.2018754425962,0.017159478752283873,0.23268731650130006,0.26131268349869996,0.35471955893641877,2189.1115753254435,2907.0250373757226
0.3343946488294315,775.5375961615264,775.4074394222389,0.017658835541410015,0.2328679845110654,0.26113201548893455,0.3547195589364188,2188.794712041738,2922.7379438820503
0.341361204013378,775.7427330871694,775.6136323062947,0.018162295765189483,0.23305013714943332,0.26094986285056665,0.3547195589364188,2188.4752449528833,2938.3495453061346
0.34832775919732445,775.9485260214294,775.8204650706616,0.01866986291650515,0.2332337756801339,0.26076622431986607,0.3547195589364189,2188.1531718424953,2953.8615043989294
0.3552943143812709,776.1549798140278,776.0279463749646,0.01918154074921471,0.23341890146131825,0.2605810985386818,0.3547195589364189,2187.828490328591,2969.2754390039477
0.3622608695652174,776.3620985317858,776.2360831523812,0.019697333268926167,0.23360551594222118,0.2603944840577788,0.35471955893641893,2187.5011978694406,2984.5929237309
0.3692274247491639,776.5698856633483,776.4448810514442,0.020217244724983926,0.23379362066026163,0.2602063793397384,0.35471955893641893,2187.1712917686523,2999.8154915555883
0.37619397993311043,776.7783442724253,776.6543447668554,0.020741279603409882,0.23398321723848886,0.26001678276151113,0.354719558936419,2186.8387691796534,3014.9446353486087
0.38316053511705694,776.9874771124502,776.8644782871121,0.02126944262060414,0.23417430738330322,0.2598256926166968,0.35471955893641904,2186.503627109686,3029.981809335686
0.3901270903010034,777.1972867123277,777.0752850797973,0.021801738717655967,0.234366892882398,0.259633107117602,0.35471955893641904,2186.1658624234165,3044.9284304925723
0.39709364548494985,777.4077754405313,777.2867682301757,0.022338173055150255,0.23456097560288028,0.2594390243971197,0.3547195589364191,2185.8254718462335,3059.785879877504
0.40406020066889636,777.6189455529882,777.4989305448223,0.022878751008381194,0.23475655748953927,0.2592434425104607,0.3547195589364191,2185.4824519672816,3074.555503904177
0.4110267558528429,777.8307992288314,777.7117746290738,0.023423478162904954,0.23495364056323725,0.2590463594367627,0.35471955893641915,2185.136799242287,3089.238615558139
0.4179933110367894,778.0433385970734,777.9253029448889,0.02397236031037851,0.2351522269194042,0.2588477730805958,0.3547195589364192,2184.7885099961945,3103.8364955594166
0.4249598662207359,778.2565657564891,778.1395178540529,0.024525403444643185,0.23535231872662052,0.25864768127337945,0.3547195589364192,2184.4375804256547,3118.3503934740793
0.43192642140468235,778.4704827904246,778.3544216504216,0.025082613758020508,0.23555391822527716,0.25844608177472284,0.35471955893641927,2184.0840066013748,3132.781528777329
0.4388929765886288,778.6850917778124,778.5700165839704,0.02564399763779462,0.23575702772630272,0.25824297227369725,0.3547195589364193,2183.727784470349,3147.1310918705785
0.4458595317725753,778.9003948013533,778.7863048787195,0.026209561662860675,0.23596164960995103,0.25803835039004897,0.3547195589364193,2183.3689098579866,3161.400245054862
0.4528260869565218,779.1163939535842,779.0032887460844,0.026779312600522586,0.23616778632464247,0.2578322136753575,0.3547195589364194,2183.007378470143,3175.590123462793
0.4597926421404683,779.3330913413685,779.2209703948097,0.027353257403426624,0.23637544038585448,0.2576245596141455,0.35471955893641943,2182.6431858950655,3189.7018359511803
0.46675919732441473,779.5504890892106,779.4393520383553,0.027931403206619555,0.23658461437505737,0.2574153856249426,0.35471955893641943,2182.2763276052624,3203.7364659562695
0.47372575250836124,779.7685893416949,779.6584359003779,0.028513757324721913,0.23679531093869144,0.25720468906130856,0.3547195589364195,2181.9067989592927,3217.6950723135024
0.48069230769230775,779.9873942652721,779.878224218796,0.029100327249208413,0.23700753278718303,0.256992467212817,0.35471955893641954,2181.534595203495,3231.57869004355
0.48765886287625426,780.2069060495629,780.0987192487993,0.029691120645788664,0.2372212826939971,0.25677871730600293,0.3547195589364196,2181.159711473648,3245.3883311063
0.4946254180602007,780.4271269083016,780.319923265069,0.03028614535188205,0.2374365634947232,0.2565634365052768,0.3547195589364196,2180.7821427965728,3259.124985124367
0.5015919732441472,780.6480590800141,780.5418385634154,0.030885409374181626,0.23765337808619458,0.2563466219138054,0.35471955893641965,2180.40188409168,3272.7896200776195
0.5085585284280937,780.8697048284996,780.7644674619801,0.031488920886302056,0.23787172942563684,0.25612827057436316,0.3547195589364197,2180.0189301724604,3286.3831829701226
0.5155250836120402,781.0920664431676,780.9878123021158,0.03209668822650755,0.23809162052984606,0.25590837947015393,0.35471955893641977,2179.6332757479286,3299.9066004708257
0.5224916387959867,781.3151462392692,781.2118754490266,0.032708719895515666,0.2383130544743941,0.2556869455256059,0.3547195589364198,2179.2449154240144,3313.360779529246
0.5294581939799332,781.5389465580519,781.4366592922335,0.033325024554373514,0.23853603439286045,0.2554639656071395,0.3547195589364198,2178.853843704912,3326.746607967328
0.5364247491638796,781.7634697668574,781.662166245908,0.03394561102240297,0.2387605634760885,0.2552394365239115,0.3547195589364199,2178.4600549943843,3340.064955048602
0.5433913043478261,781.9887182591813,781.888398749112,0.03457048827521179,0.2389866449714661,0.25501335502853384,0.35471955893641993,2178.0635435970235,3353.3166720256904
0.5503578595317726,782.2146944547045,782.1153592659665,0.035199665442767716,0.23921428218222887,0.2547857178177711,0.35471955893642,2177.6643037194735,3366.5025926671688
0.5573244147157191,782.4414007993041,782.3430502857715,0.035833151807532854,0.23944347846678504,0.25455652153321495,0.35471955893642004,2177.2623294716145,3379.62353376472
0.5642909698996657,782.6688397650549,782.5714743230877,0.03647095680265569,0.2396742372380614,0.25432576276193863,0.3547195589364201,2176.8576148677093,3392.680295621481
0.5712575250836122,782.8970138502211,782.8006339177946,0.037113090010218446,0.2399065619628691,0.2540934380371309,0.35471955893642015,2176.4501538275163,3405.6736625224275
0.5782240802675587,783.1259255792446,783.0305316351288,0.037759561159537144,0.24014045616128885,0.2538595438387111,0.3547195589364202,2176.039940177367,3418.604403187596
0.5851906354515051,783.3555775027334,783.2611700657122,0.038410380125512567,0.24037592340607405,0.25362407659392594,0.35471955893642027,2175.6269676512143,3431.4732712089076
0.5921571906354516,783.5859721974496,783.4925518255716,0.03906555692702971,0.24061296732207182,0.25338703267792817,0.3547195589364203,2175.2112298916454,3444.2810054713173
0.5991237458193981,783.8171122663018,783.7246795561542,0.03972510172540381,0.24085159158566072,0.2531484084143393,0.3547195589364204,2174.792720450872,3457.0283305589596
0.6060903010033446,784.0490003383408,783.9575559243415,0.040389024822871065,0.2410917999242047,0.2529082000757953,0.35471955893642043,2174.371432791682,3469.715957146958
0.6130568561872911,784.2816390687602,784.1911836224631,0.04105733666112221,0.24133359611552263,0.25266640388447736,0.3547195589364205,2173.9473602883754,3482.3445823794964
0.6200234113712375,784.5150311389046,784.425565368312,0.04173004781987713,0.2415769839873725,0.2524230160126275,0.35471955893642054,2173.520496227667,3494.914890234749
0.626989966555184,784.7491792562839,784.6607039051627,0.042407169015498875,0.24182196741694995,0.25217803258305005,0.3547195589364206,2173.090833809565,3507.427551877221
0.6339565217391305,784.9840861545961,784.8966020017918,0.04308871109964548,0.24206855033040062,0.2519314496695994,0.35471955893642065,2172.6583661482277,3519.883225998027
0.640923076923077,785.2197545937601,785.1332624525049,0.04377468505795802,0.24231673670234533,0.25168326329765467,0.3547195589364207,2172.2230862727947,3532.2825591436076
0.6478896321070235,785.4561873599574,785.370688077166,0.04446510200878334,0.2425665305554181,0.2514334694445819,0.35471955893642076,2171.784987128198,3544.6261860333702
0.65485618729097,785.6933872656873,785.6088817212349,0.04515997320193026,0.24281793595981607,0.2511820640401839,0.3547195589364208,2171.3440615759523,3556.9147298666962
0.6618227424749165,785.9313571498334,785.8478462558087,0.045859310017457626,0.243070957032861,0.250929042967139,0.3547195589364209,2170.9003023949226,3569.1488026197594
0.668789297658863,786.170099877746,786.0875845776724,0.04656312396449296,0.2433255979385719,0.2506744020614281,0.35471955893642093,2170.4537022820737,3581.3290053325577
0.6757558528428095,786.4096183413417,786.328099609356,0.0472714266800807,0.24358186288724828,0.25041813711275174,0.354719558936421,2170.0042538532025,3593.455928386558
0.682722408026756,786.6499154592209,786.5693942992012,0.047984229928058314,0.24383975613506365,0.25016024386493635,0.3547195589364211,2169.55194964365,3605.5301517733233
0.6896889632107024,786.8909941768101,786.8114716214371,0.048701545597959695,0.2440992819836685,0.24990071801633149,0.35471955893642115,2169.0967821089976,3617.5522453544827
0.6966555183946489,787.1328574665274,787.054334576268,0.04942338570394428,0.24436044477980323,0.24963955522019676,0.3547195589364212,2168.6387436257455,3629.5227691133805
0.7036220735785954,787.3755083279808,787.2979861899729,0.050149762383750955,0.2446232489149193,0.2493767510850807,0.35471955893642126,2168.177826491979,3641.4422733987335
0.7105886287625419,787.6189497881992,787.5424295150201,0.05088068789767588,0.24488769882480962,0.2491123011751904,0.3547195589364214,2167.714022928015,3653.311299160604
0.7175551839464884,787.8631849019071,787.787667630198,0.05161617462757295,0.24515379898924686,0.24884620101075317,0.35471955893642143,2167.2473250770354,3665.130378178982
0.7245217391304348,788.108216751846,788.033703640765,0.05235623507587622,0.2454215539316298,0.2485784460683702,0.3547195589364215,2166.7777250057106,3676.9000332852643
0.7314882943143813,788.3540484491559,788.2805406786209,0.05310088186464327,0.24569096821863712,0.24830903178136288,0.3547195589364216,2166.305214704804,3688.6207785768997
0.7384548494983278,788.6006831338218,788.528181902505,0.05385012773461851,0.24596204645988867,0.24803795354011135,0.35471955893642165,2165.8297860897674,3700.2931196254553
0.7454214046822744,788.8481239752035,788.776630498223,0.05460398554431604,0.2462347933076134,0.2477652066923866,0.3547195589364217,2165.3514310013225,3711.917553678356
0.7523879598662209,789.0963741726614,789.0258896789097,0.05536246826912076,0.24650921345632443,0.24749078654367557,0.3547195589364218,2164.8701412060313,3723.494569854529
0.7593545150501673,789.3454369562966,789.2759626853327,0.05612558900040746,0.24678531164250012,0.24721468835749988,0.3547195589364219,2164.3859083968555,3735.024649334186
0.7663210702341138,789.5953155878285,789.5268527862447,0.05689336094467705,0.2470630926442716,0.2469369073557284,0.35471955893642193,2163.8987241937048,3746.5082655429596
0.7732876254180603,789.8460133616368,789.7785632787934,0.05766579742270915,0.24734256128111623,0.24665743871888376,0.35471955893642204,2163.4085801439733,3757.945884330595
0.7802541806020068,790.0975336060002,790.0310974889992,0.05844291186873091,0.2476237224135569,0.2463762775864431,0.3547195589364221,2162.915467723067,3769.3379641444103
0.7872207357859533,790.3498796845709,790.2844587723139,0.059224717829601176,0.24790658094286674,0.24609341905713325,0.3547195589364222,2162.4193783349256,3780.6849561977083
0.7941872909698998,790.6030549981332,790.5386505142756,0.06001122896400988,0.2481911418107796,0.24580885818922044,0.35471955893642226,2161.920303312523,3791.987304633332
0.8011538461538463,790.8570629867027,790.7936761312774,0.060802459041692195,0.2484774099992055,0.2455225900007945,0.3547195589364224,2161.418233918373,3803.245446682538
0.8081204013377927,791.1119071320372,791.0495390714734,0.06159842194265725,0.24876539052995197,0.24523460947004802,0.3547195589364225,2160.913161345015,3814.4598128193675
0.8150869565217392,791.3675909606422,791.3062428158469,0.062399131656431496,0.2490550884644499,0.2449449115355501,0.35471955893642254,2160.4050767154945,3825.630826910677
0.8220535117056857,791.6241180473736,791.5637908794735,0.06320460228131644,0.24934650890348523,0.2446534910965148,0.35471955893642265,2159.8939710838354,3836.758906361995
0.8290200668896323,791.881492019764,791.8221868130178,0.06401484802366128,0.2496396569869356,0.2443603430130644,0.35471955893642276,2159.3798354355004,3847.844462259364
0.8359866220735788,792.1397165632211,792.08143420451,0.06482988319715059,0.24993453789351291,0.24406546210648708,0.3547195589364228,2158.8626606878424,3858.8878995073233
0.8429531772575252,792.3987954272828,792.3415366814565,0.06564972222210796,0.2502311568405111,0.24376884315948888,0.35471955893642293,2158.3424376905486,3869.8896169631894
0.8499197324414717,792.6587324331527,792.6024979133559,0.06647437962481599,0.25052951908356025,0.24347048091643972,0.35471955893642304,2157.8191572260703,3880.8500075677775
0.8568862876254182,792.9195314827897,792.8643216146967,0.06730387003685451,0.2508296299163872,0.24317037008361278,0.3547195589364231,2157.292810010043,3891.7694584727296
0.8638528428093647,793.181196569879,793.1270115485412,0.06813820819445796,0.2511314946705828,0.24286850532941717,0.3547195589364232,2156.7633866916935,3902.648351164585
0.8708193979933112,793.4437317930956,793.39057153081,0.06897740893789464,0.25143511871537777,0.24256488128462225,0.3547195589364233,2156.230877854237,3913.4870615857694
0.8777859531772576,793.7071413721487,793.6550054354151,0.06982148721086982,0.2517405074574262,0.24225949254257378,0.35471955893642343,2155.695274015251,3924.2859602526373
0.8847525083612041,793.9714296672151,793.9203172004158,0.0706704580599567,0.2520476663406001,0.24195233365939986,0.35471955893642354,2155.156565627041,3935.0454123707573
0.8917190635451506,794.2366012024963,794.1865108354118,0.0715243366340587,0.25235660084579475,0.24164339915420524,0.35471955893642365,2154.614743076977,3945.7657779475935
0.8986856187290971,794.5026606948039,794.4535904304322,0.07238313818390889,0.2526673164907474,0.2413326835092526,0.35471955893642376,2154.069796687816,3956.447411902788
0.9056521739130436,794.7696130882798,794.7215601666359,0.07324687806161251,0.25297981882987197,0.24102018117012802,0.3547195589364239,2153.5217167179903,3967.090664176226
0.91261872909699,795.0374635966014,794.9904243292095,0.07411557172024072,0.253294113454112,0.24070588654588795,0.354719558936424,2152.9704933618623,3977.6958798341207
0.9195852842809366,795.3062177543364,795.2601873229322,0.07498923471348526,0.25361020599081574,0.24038979400918425,0.3547195589364241,2152.4161167499487,3988.263399173357
0.9265518394648831,795.5758814794763,795.5308536909808,0.07586788269538604,0.2539281021036375,0.24007189789636255,0.3547195589364242,2151.8585769490905,3998.7935578243637
0.9335183946488296,795.8464611496488,795.8024281376809,0.07675153142014642,0.2542478074924707,0.23975219250752924,0.3547195589364243,2151.297863962571,4009.286686852848
0.9404849498327761,796.1179636950678,796.0749155560644,0.0776401967420544,0.25456932789342,0.23943067210657998,0.35471955893642443,2150.7339677301634,4019.743112860737
0.9474515050167225,796.39039671198,796.3483210612974,0.07853389461553208,0.25489266907881825,0.23910733092118172,0.35471955893642454,2150.166878128104,4030.163158086765
0.954418060200669,796.6637686012142,796.622650031284,0.07943264109534086,0.25521783685730143,0.23878216314269857,0.35471955893642465,2149.596584968959,4040.5471405072094
0.9613846153846155,796.9380887374911,796.8979081560643,0.08033645233697617,0.2555448370739512,0.2384551629260488,0.3547195589364248,2149.023078001374,4050.895373937346
0.968351170568562,797.2133676764198,797.174101498008,0.08124534459729385,0.25587367561052154,0.23812632438947848,0.35471955893642493,2148.4463469096772,4061.2081681343598
0.9753177257525085,797.4896174076731,797.4512365652995,0.0821593342354197,0.2562043583857678,0.23779564161423217,0.35471955893642504,2147.8663813133016,4071.4858289025315
0.9822842809364549,797.766851664723,797.7293204018245,0.08307843771400608,0.25653689135590163,0.2374631086440984,0.3547195589364252,2147.28317076599,4081.728658201726
0.9892508361204014,798.045086303816,798.0083606973658,0.08400267160091525,0.2568712805151994,0.23712871948480058,0.3547195589364253,2146.696704754722,4091.9369542604063
0.9962173913043479,798.3243397676335,798.2883659230318,0.08493205257142813,0.257207531896802,0.23679246810319796,0.3547195589364254,2146.1069726983187,4102.11101169464
1.0031839464882943,798.6046336523862,798.5693454981625,0.08586659741110216,0.2575456515737485,0.2364543484262515,0.3547195589364256,2145.513963945624,4112.251121634893
1.010150501672241,798.8859934010108,798.8513099966788,0.08680632301943299,0.25788564566030076,0.23611435433969918,0.3547195589364257,2144.917667773183,4122.357571862761
1.0171170568561874,799.1684491497166,799.1342714031015,0.08775124641451519,0.2582275203136302,0.2357724796863698,0.35471955893642587,2144.3180733822865,4132.430646960232
1.0240836120401338,799.4520367603936,799.4182434314658,0.08870138473894866,0.2585712817359542,0.2354287182640458,0.354719558936426,2143.71516989522,4142.470628474623
1.0310501672240804,799.7367990772877,799.7032419243386,0.08965675526730486,0.25891693617723777,0.23508306382276226,0.35471955893642615,2143.108946350527,4152.477795102946
1.038016722408027,800.0227874527276,799.9892853544892,0.09061737541555438,0.2592644899386043,0.23473551006139573,0.3547195589364263,2142.4993916970275,4162.452422900197
1.0449832775919734,800.3100635931853,800.2763954589274,0.09158326275297342,0.25961394937664334,0.23438605062335666,0.3547195589364264,2141.8864947862635,4172.394785516891
1.0519498327759198,800.5987017829513,800.5645980446417,0.09255443501719883,0.25996532090885766,0.23403467909114237,0.3547195589364266,2141.2702443629437,4182.305154472129
1.0589163879598664,800.8887915471078,800.8539240182347,0.09353091013330331,0.2603186110205645,0.2336813889794355,0.35471955893642676,2140.6506290528423,4192.18379946948
1.065882943143813,801.1804408165871,801.1444107087091,0.09451270623803214,0.2606738262736646,0.2333261737263354,0.3547195589364269,2140.0276373474153,4202.0309887640005
1.0728494983277594,801.4737796532805,801.436103574899,0.09549984171069906,0.26103097331782027,0.23296902668217975,0.3547195589364271,2139.4012575842025,4211.846989589728
1.0798160535117058,801.7689645786222,801.7290584173012,0.09649233521270945,0.261390058904755,0.232609941095245,0.35471955893642726,2138.7714779217413,4221.632068657706
1.0867826086956522,802.0661835195649,802.0233442484644,0.09749020573829273,0.26175108990660856,0.23224891009339144,0.35471955893642737,2138.1382863073786,4231.386492734983
1.0937491638795986,802.3656613345521,802.3190470151005,0.09849347267981007,0.2621140733395653,0.2318859266604347,0.35471955893642754,2137.5016704358313,4241.110529314497
1.1007157190635453,802.667665800791,802.6162744038772,0.09950215591197514,0.2624790163943254,0.23152098360567458,0.35471955893642776,2136.8616176957416,4250.804447384107
1.1076822742474919,802.972513824302,802.9151619907684,0.10051627590046887,0.2628459264754019,0.23115407352459807,0.3547195589364279,2136.218115100757,4260.468518299378
1.1146488294314383,803.2805774692042,803.215880991181,0.10153585384166948,0.2632148112516752,0.23078518874832482,0.3547195589364281,2135.5711492008677,4270.103016758496
1.1216153846153847,803.5922891918757,803.5186478026922,0.10256091184136615,0.2635856787210517,0.23041432127894831,0.35471955893642826,2134.9207059690025,4279.708221868031
1.1285819397993313,803.9081454207902,803.8237353583671,0.10359147314101977,0.2639585372923257,0.23004146270767428,0.3547195589364284,2134.26677065746,4289.284418274419
1.135548494983278,804.228707376305,804.1314859718221,0.10462756239979037,0.2643333958872171,0.22966660411278292,0.35471955893642865,2133.6093276189445,4298.831897317915
1.1425150501672243,804.5545978369377,804.4423248093404,0.10566920603833097,0.2647102640647563,0.2292897359352437,0.3547195589364288,2132.94836008842,4308.350958143852
1.1471594202898554,804.7751503297271,804.6515191464828,0.10636673491249928,0.26496263102199813,0.22903736897800187,0.3547195589364289,2132.505748123666,4314.681362474553
1.151803790412486,804.9985809541837,804.8624949769786,0.10706675415150137,0.26521589899684483,0.22878410100315516,0.3547195589364291,2132.0615559156945,4320.999366716467
1.1564481605351171,805.2251049305562,805.0754533348828,0.10776927343894808,0.2654700714928408,0.22852992850715917,0.3547195589364292,2131.61577731984,4327.305066387106
1.1610925306577482,805.454938932554,805.2906162284384,0.10847430310891572,0.2657251522488699,0.22827484775113013,0.3547195589364293,2131.1684057786883,4333.59855897283
1.165736900780379,805.688297142726,805.5082253414014,0.10918185421107326,0.26598114526271827,0.22801885473728176,0.3547195589364295,2130.7194342807506,4339.8799439033055
1.1703812709030101,805.9253868580594,805.7285395427839,0.10989193857120119,0.2662380548129704,0.22776194518702958,0.3547195589364296,2130.268855322063,4346.1493224739
1.1750256410256412,806.1664038101284,805.9518311017606,0.11060456884340233,0.26649588547789915,0.22750411452210081,0.35471955893642976,2129.816660873054,4352.406797712144
1.179670011148272,806.4115274110212,806.1783806065397,0.11131975855007349,0.2667546421499273,0.22724535785007274,0.35471955893642987,2129.362842353183,4358.652474186778
1.1843143812709032,806.6609161693694,806.4084707115093,0.11203752210579983,0.26701433004427244,0.22698566995572758,0.35471955893643,2128.90739061578,4364.886457760801
1.1889587513935342,806.9147035336599,806.6423789707287,0.11275787482181063,0.2672749547005596,0.22672504529944035,0.35471955893643015,2128.4502959452116,4371.108855293035
1.1936031215161653,807.1729944084972,806.8803701378268,0.11348083288850089,0.26753652197649724,0.22646347802350275,0.3547195589364303,2127.9915480679797,4377.319774295785
1.1982474916387962,807.4358625529467,807.1226884017242,0.11420641333471847,0.2677990380331472,0.22620096196685285,0.3547195589364304,2127.53113617855,4383.51932255889
1.202891861761427,807.7033490117791,807.3695500673513,0.11493463396393382,0.2680625093118307,0.22593749068816932,0.3547195589364306,2127.069048979857,4389.707607752538
1.2075362318840581,807.9754616570924,807.6211371717949,0.11566551326888688,0.26832694250324796,0.22567305749675204,0.3547195589364307,2126.6052747374656,4395.884737022384
1.2121806020066892,808.2521758384524,807.8775924506551,0.11639907032767806,0.26859234450988334,0.22540765549011668,0.35471955893643087,2126.1398013455027,4402.0508165908195
1.2168249721293203,808.5334360639681,808.1390159484808,0.11713532468537682,0.26885872240317127,0.22514127759682873,0.35471955893643103,2125.6726164017846,4408.205951377464
1.2214693422519511,808.8191585710475,808.4054634199036,0.11787429622595029,0.26912608337715993,0.2248739166228401,0.3547195589364312,2125.203707289082,4414.350244650401
1.2261137123745822,809.1092345999243,808.6769465162346,0.11861600503960812,0.2693944347005161,0.22460556529948386,0.35471955893643137,2124.7330612592955,4420.483797717477
1.230758082497213,809.4035341581421,808.9534346159006,0.11936047129052459,0.2696637836686675,0.22433621633133252,0.3547195589364315,2124.2606655173927,4426.606709664363
1.2354024526198442,809.7019100596933,809.234858050986,0.12010771508939226,0.2699341375576917,0.22406586244230836,0.35471955893643164,2123.7865073022767,4432.719077143377
1.240046822742475,810.0042020355502,809.5211124141999,0.12085775637447611,0.27020550358128176,0.22379449641871824,0.3547195589364318,2123.3105739622647,4438.820994214406
1.2446911928651059,810.3102407384661,809.812063601774,0.12161061480388564,0.2704778888517703,0.22352211114822965,0.354719558936432,2122.832853023443,4444.912552236962
1.249335562987737,810.6198514991582,810.1075532535801,0.12236630966076759,0.2707513003458278,0.22324869965417218,0.35471955893643214,2122.353332249829,4450.993839810494
1.253979933110368,810.9328577285396,810.4074042841988,0.12312485977213763,0.27102574487509573,0.2229742551249043,0.3547195589364323,2121.871999694874,4457.064942758578
1.2586243032329991,811.2490838975939,810.7114262484646,0.12388628344118097,0.27130122906169296,0.22269877093830703,0.3547195589364325,2121.3888437444234,4463.125944151697
1.26326867335563,811.5683580599116,811.0194203432915,0.12465059839209705,0.2715777593182606,0.2224222406817394,0.3547195589364327,2120.903853151712,4469.176924362757
1.267913043478261,811.8905139100581,811.3311839069131,0.12541782172596355,0.27185534183199334,0.22214465816800666,0.35471955893643287,2120.4170170653733,4475.217961149341
1.2725574136008921,812.2153923930475,811.6465143316345,0.12618796988563932,0.27213398255194127,0.2218660174480587,0.35471955893643303,2119.9283250517096,4481.249129756862
1.277201783723523,812.542842896235,811.9652123534231,0.12696105862740437,0.2724136871787494,0.22158631282125058,0.3547195589364332,2119.4377671126854,4487.270503037142
1.281846153846154,812.8727240654074,812.2870847195278,0.1277371029968158,0.27269446115592205,0.22130553884407794,0.3547195589364334,2118.945333701249,4493.282151577484
1.2864905239687852,813.2049042925787,812.6119462635786,0.12851611730611218,0.2729763096616479,0.22102369033835215,0.3547195589364336,2118.451015735673,4499.284143835913
1.2911348940914162,813.5392619249031,812.9396214369631,0.129298115110399,0.27325923760018367,0.22074076239981635,0.3547195589364338,2117.954804614661,4505.276546278888
1.295779264214047,813.8756852431427,813.2699453569162,0.13008310917975527,0.2735432495917625,0.2204567504082375,0.354719558936434,2117.456692235052,4511.259423518466
1.300423634336678,814.2140722551411,813.6027644371636,0.1308711114642983,0.27382834995995414,0.22017165004004582,0.3547195589364342,2116.956671013983,4517.23283844646
1.305068004459309,814.5543303454544,813.9379366675895,0.1316621330490946,0.2741145427153518,0.21988545728464823,0.35471955893643436,2116.454733917504,4523.196852363711
1.30971237458194,814.8963758172955,814.2753316066113,0.13245618409559723,0.27440183153438374,0.21959816846561625,0.3547195589364346,2115.9508744977393,4529.151525103065
1.314356744704571,815.2401333576755,814.614830144889,0.13325327376599133,0.27469021973194196,0.21930978026805806,0.3547195589364348,2115.445086940889,4535.096915145071
1.3190011148272018,815.5855354514116,814.956324092607,0.13405341012642574,0.27497971022637074,0.21902028977362925,0.354719558936435,2114.9373661286345,4541.033079725738
1.323645484949833,815.9325217647248,815.299715635567,0.13485660002457642,0.2752703054951692,0.21872969450483082,0.3547195589364352,2114.427707715834,4546.960074936017
1.328289855072464,816.2810385146013,815.6449166982228,0.13566284893629824,0.2755620075195095,0.21843799248049048,0.3547195589364354,2113.9161082278215,4552.877955812825
1.332934225195095,816.6310378359946,815.9918482449509,0.13647216077525912,0.2758548177153624,0.21814518228463756,0.35471955893643564,2113.4025651812076,4558.786776421675
1.337578595317726,816.9824771553339,816.3404395444835,0.13728453765837192,0.27614873684863017,0.21785126315136988,0.35471955893643586,2112.8870772327205,4564.68658993102
1.3422229654403568,817.3353185756293,816.6906274166677,0.1380999796185232,0.276443764931211,0.21755623506878904,0.3547195589364361,2112.3696443614917,4570.577448678545
1.3468673355629879,817.6895282757158,817.0423554755928,0.13891848425449146,0.27673990109433955,0.21726009890566048,0.3547195589364363,2111.8502680911997,4576.459404229663
1.351511705685619,818.0450759237668,817.3955733786352,0.1397400463060168,0.2770371434348462,0.21696285656515382,0.3547195589364366,2111.328951759705,4582.33250742848
1.35615607580825,818.4019341030967,817.7502360870636,0.14056465713966462,0.2773354888291418,0.21666451117085828,0.3547195589364368,2110.805700845291,4588.196808441497
1.360800445930881,818.7600777463699,818.1063031404543,0.1413923041283688,0.2776349327087354,0.2163650672912646,0.35471955893643703,2110.280523360373,4594.052356794238
1.365444816053512,819.119483572594,818.4637379442106,0.1422229699042763,0.2779354687899128,0.21606453121008717,0.3547195589364373,2109.753430325598,4599.899201401006
1.370089186176143,819.4801295196069,818.8225070668627,0.14305663146067873,0.27823708874881353,0.21576291125118646,0.35471955893643753,2109.224436339708,4605.737390587804
1.374733556298774,819.8419941631413,819.1825795414776,0.1438932590743476,0.27853978183153044,0.21546021816846958,0.3547195589364378,2108.693560263366,4611.566972108429
1.3793779264214048,820.2050561118837,819.5439261633304,0.14473281501442703,0.2788435343869851,0.21515646561301485,0.3547195589364381,2108.160826038417,4617.387993153629
1.3840222965440356,820.5692933662036,819.9065187739252,0.1455752519981526,0.27914832930820505,0.21485167069179495,0.3547195589364383,2107.6262636678007,4623.200500353043
1.3886666666666667,820.9346826263949,820.2703295194201,0.14642051134706202,0.2794541453652375,0.21454585463476256,0.3547195589364386,2107.089910385517,4629.004539769535
1.3933110367892978,821.3011985343061,820.6353300694918,0.1472685207901135,0.27976095641031473,0.21423904358968526,0.35471955893643886,2106.551812050639,4634.800156885365
1.3979554069119289,821.6688128301806,821.0014907806205,0.148119191852417,0.2800687304330935,0.21393126956690647,0.35471955893643914,2106.0120248042767,4640.587396579431
1.4025997770345597,822.0374934044287,821.3687797857116,0.14897241676044834,0.28037742844095653,0.21362257155904343,0.3547195589364394,2105.470617033349,4646.366303094631
1.4072441471571908,822.4072032220299,821.7371619899562,0.14982806478725172,0.280687003136702,0.21331299686329808,0.3547195589364397,2104.927671689712,4652.136919994155
1.411888517279822,822.7778990955235,822.1065979509775,0.15068597795517458,0.280997397363786,0.21300260263621398,0.35471955893643997,2104.383289016958,4657.899290105271
1.4165328874024528,823.1495302814101,822.4770426198402,0.1515459660105434,0.2813085422881541,0.2126914577118459,0.3547195589364403,2103.837589739195,4663.653455448929
1.4211772575250838,823.5220368747403,822.8484439187336,0.15240780058646336,0.2816203552863328,0.21237964471366721,0.3547195589364406,2103.2907187650067,4669.399457153228
1.425821627647715,823.8953479784004,823.2207411315953,0.15327120847953934,0.28193273751293796,0.2120672624870621,0.35471955893644086,2102.742849453655,4675.13733534854
1.430465997770346,824.2693796280857,823.5938630862912,0.15413586398775841,0.28224557112850934,0.21175442887149065,0.3547195589364412,2102.194188477025,4680.867129041908
1.4351103678929769,824.6440324624343,823.9677261121892,0.15500138029522456,0.28255871618249545,0.21144128381750452,0.3547195589364415,2101.6449812863816,4686.588875968154
1.4397547380156077,825.0191891418712,824.3422317662679,0.1558672999512974,0.28287200716859184,0.21112799283140815,0.3547195589364418,2101.095518153761,4692.30261241517
1.4443991081382386,825.3947115412378,824.7172643357757,0.15673308458427374,0.28318524930313627,0.21081475069686373,0.35471955893644214,2100.546140699082,4698.008373021017
1.4490434782608697,825.7704377722317,825.0926881475696,0.1575981041205185,0.28349821462457475,0.21050178537542524,0.35471955893644247,2099.997248731069,4703.7061905409455
1.4536878483835007,826.1461791337533,825.4683447452427,0.15846162595482374,0.2838106380752817,0.21018936192471832,0.3547195589364428,2099.4493071191237,4709.3960955833345
1.4583322185061316,826.5217171423005,825.8440500361442,0.15932280473841054,0.2841222138068441,0.2098777861931559,0.35471955893644314,2098.902852273275,4715.078116314922
1.4606544035674471,826.7093328010975,826.0318557242821,0.15975221830415715,0.2842775762570581,0.20972242374294195,0.3547195589364433,2098.6303709623708,4717.916178119376
1.4629765886287627,826.896800859178,826.2195915599688,0.1601806737127494,0.2844325920446254,0.2095674079553746,0.35471955893644347,2098.3584976432444,4720.752278137197
1.4652987736900782,827.0840845347457,826.407226159913,0.16060803017252137,0.28458721023091743,0.20941278976908254,0.3547195589364437,2098.0873216542423,4723.5864190548145
1.4676209587513938,827.2711448052632,826.5947260994467,0.1610341387809072,0.2847413769427701,0.20925862305722992,0.35471955893644386,2097.816937480424,4726.4186033416945
1.4699431438127093,827.457940400188,826.7820558759558,0.1614588425946487,0.2848950353978852,0.2091049646021148,0.354719558936444,2097.547444709013,4729.248833238903
1.4722653288740248,827.644427818308,826.9691778897445,0.1618819768045627,0.2850481259680615,0.20895187403193852,0.3547195589364442,2097.2789479184994,4732.077110747757
1.4745875139353402,827.8305613731212,827.1560524452872,0.16230336902786252,0.285200586284957,0.20879941371504301,0.35471955893644436,2097.0115564931484,4734.903437618698
1.4769096989966557,828.0162932695624,827.3426377758312,0.16272283973010263,0.2853523513927493,0.20864764860725074,0.3547195589364446,2096.745384355261,4737.727815340576
1.4792318840579712,828.201573715092,827.5288900942155,0.16314020278723534,0.2855033539514881,0.20849664604851187,0.35471955893644475,2096.4805496085223,4740.550245130478
1.4815540691192866,828.3863510676986,827.7147636725598,0.16355526619596245,0.2856535244941022,0.20834647550589785,0.3547195589364449,2096.2171740872536,4743.370727924347
1.483876254180602,828.570572022722,827.9002109531223,0.16396783293750028,0.28580279173891,0.20819720826109003,0.35471955893644513,2095.955382808316,4746.189264368542
1.4861984392419176,828.7541818395702,828.0851826921307,0.16437770199604784,0.28595108295810356,0.20804891704189646,0.3547195589364453,2095.695303324851,4749.005854812592
1.4885206243032332,828.9371246083849,828.2696281377438,0.16478466952872442,0.28609832440103333,0.20790167559896666,0.35471955893644547,2095.4370649839016,4751.820499303328
1.4908428093645487,829.1193435555417,828.4534952425078,0.16518853017862975,0.28624444176927527,0.20775555823072472,0.3547195589364457,2095.180798093223,4754.633197580617
1.493164994425864,829.3007813855627,828.6367309097625,0.1655890785171677,0.28638936073846566,0.20761063926153434,0.35471955893644586,2094.926633006063,4757.443949074876
1.4954871794871796,829.481380655656,828.8192812724253,0.1659861105961099,0.28653300751984,0.20746699248015998,0.3547195589364461,2094.6746991363143,4760.252752906574
1.4978093645484951,829.6610841777098,829.0010920015128,0.16637942558434565,0.28667530945241154,0.20732469054758845,0.35471955893644624,2094.425123919922,4763.059607887832
1.5001315496098107,829.8398354412661,829.1821086406619,0.16676882745922453,0.28681619561490124,0.20718380438509873,0.35471955893644647,2094.178031741659,4765.864512526285
1.5024537346711262,830.0175790498298,829.3622769618678,0.16715412671817748,0.2869555974450052,0.2070444025549948,0.35471955893644663,2093.9335428490285,4768.6674650312525
1.5047759197324417,830.1942611619426,829.5415433367075,0.16753514207324344,0.2870934493524764,0.2069065506475236,0.35471955893644685,2093.6917722770095,4771.468463322276
1.5070981047937573,830.3698299278199,829.7198551165336,0.16791170208950704,0.287229689311914,0.20677031068808596,0.3547195589364471,2093.452828808404,4774.267505039985
1.5094202898550728,830.5442359120759,829.8971610145437,0.1682836467284732,0.2873642594211588,0.2066357405788412,0.35471955893644724,2093.216813994495,4777.064587559259
1.5117424749163884,830.7174324931839,830.0734114823204,0.16865082875916249,0.287497106411829,0.206502893588171,0.35471955893644747,2092.98382125965,4779.859708004542
1.514064659977704,830.8893762308409,830.2485590733871,0.1690131150031667,0.28762818209978364,0.20637181790021636,0.3547195589364477,2092.7539351112764,4782.652863267166
1.5163868450390194,831.0600271933116,830.4225587865851,0.16937038738492136,0.28775744376511236,0.20624255623488766,0.35471955893644785,2092.5272304733794,4785.44405002446
1.5187090301003348,831.2293492380645,830.5953683826046,0.1697225437647528,0.2878848544535333,0.2061151455464667,0.3547195589364481,2092.3037721579603,4788.233264760416
1.5210312151616503,831.3973102405162,830.7669486677868,0.17006949853947123,0.2880103831936883,0.20598961680631167,0.3547195589364483,2092.083614483911,4791.020503787617
1.5233534002229658,831.563882267382,830.937263740304,0.17041118300299668,0.2881340051276182,0.20586599487238177,0.3547195589364485,2091.8668010481842,4793.805763270141
1.5256755852842812,831.7290416928922,831.1062811949724,0.1707475454672628,0.28825570155450564,0.20574429844549436,0.3547195589364487,2091.653364649073,4796.589039247133
1.5279977703455965,831.8927692578718,831.2739722841785,0.17107855115103326,0.28837545989044894,0.20562454010955106,0.3547195589364489,2091.4433273567624,4799.3703276567185
1.5326421404682276,832.2158735715902,831.6052793110395,0.17172443541998045,0.28860914175469965,0.20539085824530035,0.35471955893644935,2091.0334861073616,4804.926925163654
1.5372865105908584,832.5331273288776,831.9310312759326,0.17234887842831295,0.2888350661397962,0.20516493386020376,0.3547195589364498,2090.6372502567315,4810.475522178862
1.5419308807134895,832.8445277083591,832.2511359975648,0.17295215389056154,0.2890533320760525,0.20494666792394753,0.35471955893645024,2090.254446121272,4816.016084958367
1.5465752508361206,833.1501309005052,832.5655604134032,0.17353473472314,0.289264110665312,0.20473588933468798,0.3547195589364507,2089.884773615251,4821.548580293677
1.5488974358974361,833.3007903929135,832.7206473259849,0.17381845811387098,0.2893667621991318,0.20463323780086817,0.3547195589364509,2089.7047389642585,4824.3117925848655
1.5512196209587517,833.4500444953259,832.8743263327308,0.17409725718588995,0.2894676321073074,0.2045323678926926,0.35471955893645113,2089.5278290045308,4827.07297609825
1.5535418060200672,833.5979133054989,833.0266078001403,0.17437123097197765,0.2895667562200422,0.2044332437799578,0.3547195589364514,2089.3539808955243,4829.832127079198
1.5558639910813827,833.7444190694958,833.1775047611839,0.17464048421031256,0.289664172431761,0.20433582756823898,0.35471955893645163,2089.183128176376,4832.589241899642
1.5581861761426983,833.8895859192573,833.3270326973065,0.17490512632305885,0.28975992033156134,0.20424007966843866,0.35471955893645185,2089.0152014140335,4835.3443170682785
1.5605083612040136,834.0334396191327,833.4752093180309,0.17516527045915747,0.289854040856894,0.20414595914310607,0.3547195589364521,2088.850128810645,4838.0973492393405
1.5628305462653291,834.1760073237235,833.6220543411772,0.17542103260723296,0.28994657597261125,0.20405342402738877,0.35471955893645235,2088.687836766456,4840.848335220006
1.5651527313266447,834.3173173488151,833.7675892763193,0.17567253078210437,0.2900375683766457,0.20396243162335428,0.3547195589364526,2088.528250396007,4843.597271976522
1.5674749163879602,834.457398956651,833.9118372136891,0.1759198842862977,0.29012706123282417,0.20387293876717585,0.3547195589364528,2088.3712939967318,4846.34415663911
1.5697971014492758,834.5962821563547,834.0548226203498,0.17616321304622917,0.2902150979306976,0.20378490206930236,0.354719558936453,2088.2168914701797,4849.088986505759
1.572119286510591,834.7339975198962,834.1965711450935,0.17640263702128745,0.2903017218717468,0.20369827812825317,0.3547195589364533,2088.064966696978,4851.8317590449715
1.5744414715719066,834.8705760136929,834.3371094331844,0.17663827568303242,0.29038697628095517,0.20361302371904486,0.3547195589364535,2087.915443867301,4854.572471897577
1.5767636566332222,835.0060488456404,834.4764649517556,0.17687024756082956,0.29047090404241876,0.2035290959575812,0.3547195589364538,2087.768247769187,4857.311122877673
1.5790858416945375,835.1404473271668,834.6146658264039,0.17709866984973477,0.29055354755747875,0.20344645244252124,0.354719558936454,2087.6233040373495,4860.047709972803
1.581408026755853,835.2738027497384,834.751740689287,0.17732365807607844,0.2906349486237287,0.20336505137627128,0.3547195589364543,2087.4805393653824,4862.782231343439
1.5837302118171686,835.4061462751167,834.8877185388261,0.1775453258160319,0.29071514833319206,0.20328485166680796,0.3547195589364545,2087.3398816843355,4865.51468532185
1.586052396878484,835.5375088385814,835.0226286109446,0.17776378446235544,0.2907941869879308,0.2032058130120692,0.3547195589364548,2087.20126031073,4868.245070410442
1.5883745819397996,835.6679210642827,835.1565002616348,0.1779791430346623,0.29087210403139896,0.203127895968601,0.354719558936455,2087.0646060669483,4870.973385279621
1.590696767001115,835.7974131918559,835.2893628605293,0.1781915080286414,0.2909489379938911,0.20305106200610892,0.3547195589364553,2086.9298513769113,4873.699628765249
1.5930189520624305,835.9260150134326,835.4212456950677,0.17840098329996018,0.29102472645053823,0.20297527354946182,0.3547195589364555,2086.796930339748,4876.423799865773
1.595341137123746,836.0537558201705,835.5521778847759,0.17860766997872335,0.29109950599035855,0.20290049400964147,0.3547195589364558,2086.6657787840722,4879.145897739032
1.5976633221850616,836.1806643574788,835.6821883051336,0.17881166641079138,0.291173312195027,0.20282668780497295,0.35471955893645607,2086.536334305221,4881.865921698856
1.5999855072463771,836.3067687881095,835.8113055204644,0.17901306812240056,0.29124617962607435,0.2027538203739257,0.3547195589364563,2086.408536287703,4884.58387121145
1.6023076923076924,836.4320966623674,835.9395577252752,0.1792119678050039,0.29131814181940235,0.2026818581805976,0.35471955893645657,2086.282325914819,4887.299745891622
1.604629877369008,836.5566748946936,836.0669726934543,0.17940845531738234,0.2913892312860484,0.20261076871395162,0.35471955893645685,2086.157646167321,4890.013545498895
1.6069520624303235,836.6805297459496,836.1935777347418,0.17960261770246952,0.2914594795182718,0.20254052048172821,0.3547195589364571,2086.034441812739,4892.7252699335395
1.609274247491639,836.8036868107691,836.319399657901,0.17979453921656743,0.29152891700012473,0.20247108299987526,0.3547195589364574,2085.912659386836,4895.43491923253
1.6115964325529546,836.9261710093913,836.444464740028,0.17998430136889726,0.29159757322176155,0.20240242677823844,0.3547195589364576,2085.792247168519,4898.14249356548
1.61391861761427,837.0480065834369,836.568798701461,0.1801719829696501,0.2916654766968235,0.20233452330317647,0.3547195589364579,2085.673155149344,4900.847993230564
1.6162408026755855,837.1692170951367,836.6924266857754,0.18035766018494995,0.29173265498232476,0.2022673450176753,0.3547195589364582,2085.5553349986412,4903.5514186504415
1.618562987736901,837.2898254295617,836.8153732443743,0.18054140659731405,0.29179913470052643,0.20220086529947356,0.35471955893645846,2085.43874002515,4906.252770368214
1.6208851727982163,837.4098537994458,836.9376623252098,0.18072329327037223,0.2918649415623529,0.2021350584376471,0.35471955893645873,2085.3233251359516,4908.952049043414
1.6232073578595319,837.5293237522383,837.0593172652087,0.1809033888168193,0.29193010039197653,0.2020698996080235,0.354719558936459,2085.2090467933504,4911.649255448047
1.6255295429208474,837.6482561790464,837.1803607859936,0.18108175946864205,0.29199463515222607,0.20200536484777398,0.3547195589364593,2085.0958629703123,4914.344390462698
1.627851727982163,837.7666713251796,837.3008149925262,0.18125846914887642,0.29205856897054855,0.2019414310294515,0.35471955893645957,2084.9837331049316,4917.037455072703
1.6301739130434785,837.8845888020232,837.4207013743287,0.18143357954420852,0.2921219241652763,0.2018780758347237,0.35471955893645984,2084.8726180543617,4919.7284503644005
1.632496098104794,838.0020275999988,837.5400408089571,0.1816071501778132,0.29218472227198033,0.20181527772801963,0.3547195589364601,2084.7624800485987,4922.41737752147
1.6348182831661096,838.1190061024173,837.6588535674451,0.1817792384820497,0.29224698406977145,0.2017530159302286,0.3547195589364604,2084.653282644347,4925.104237821352
1.6371404682274249,838.2355421000182,837.77715932144,0.18194989987050275,0.29230872960736476,0.20169127039263524,0.3547195589364607,2084.544990679314,4927.789032631762
1.6394626532887404,838.3516528060495,837.8949771517978,0.18211918780914876,0.29236997822882804,0.20163002177117195,0.354719558936461,2084.4375702270463,4930.471763407298
1.641784838350056,838.4673548717234,838.0123255584078,0.18228715388626646,0.29243074859887536,0.20156925140112467,0.3547195589364613,2084.3309885525687,4933.152431686144
1.6441070234113715,838.5826644019385,838.1292224710542,0.18245384788097496,0.29249105872766396,0.20150894127233604,0.35471955893646157,2084.225214068898,4935.831039086873
1.646429208472687,838.6975969711493,838.245685261131,0.18261931783016108,0.2925509259950092,0.20144907400499076,0.35471955893646184,2084.12021629457,4938.507587305342
1.6487513935340026,838.8121676392886,838.3617307540533,0.18278361009369426,0.29261036717397904,0.20138963282602096,0.3547195589364622,2084.015965812261,4941.1820781116885
1.6510735785953181,838.9263909676637,838.4773752422177,0.1829467694178256,0.29266939845383194,0.20133060154616808,0.35471955893646245,2083.9124342285577,4943.854513347422
1.6533957636566334,839.0402810347487,838.5926344983845,0.18310883899667818,0.2927280354622641,0.2012719645377359,0.35471955893646273,2083.8095941349366,4946.524894922611
1.655717948717949,839.1538514518224,838.7075237893696,0.183269860531814,0.29278629328696115,0.20121370671303884,0.35471955893646306,2083.7074190699695,4949.193224813169
1.6580401337792645,839.2671153783883,838.8220578899414,0.18342987428980995,0.292844186496429,0.20115581350357098,0.35471955893646334,2083.605883482789,4951.859505058223
1.66036231884058,839.3800855373493,838.9362510968424,0.18358891915788975,0.29290172916012147,0.20109827083987855,0.3547195589364636,2083.504962697784,4954.523737757587
1.6626845039018956,839.4927742298834,839.0501172428447,0.18374703269752696,0.2929589348678341,0.2010410651321659,0.35471955893646395,2083.404632880589,4957.185925069317
1.6650066889632111,839.6051933500147,839.1636697107906,0.18390425119615683,0.29301581674841354,0.20098418325158646,0.35471955893646423,2083.3048710052726,4959.846069207351
1.6673288740245267,839.7173543988323,839.2769214475401,0.18406060971689855,0.2930723874877471,0.20092761251225288,0.35471955893646456,2083.205654822783,4962.504172439244
1.669651059085842,839.8292684983559,839.3898849777896,0.18421614214640178,0.2931286593460738,0.2008713406539262,0.35471955893646484,2083.1069628305877,4965.160237083974
1.6719732441471575,839.9409464050314,839.5025724177143,0.18437088124084355,0.29318464417462586,0.20081535582537416,0.3547195589364652,2083.0087742434885,4967.814265509839
1.674295429208473,840.0523985228361,839.6149954883925,0.18452485867007426,0.2932403534316011,0.20075964656839893,0.35471955893646545,2082.911068965609,4970.466260132425
1.6766176142697884,840.1636349160051,839.7271655289927,0.18467810506003499,0.29329579819750934,0.2007042018024907,0.3547195589364658,2082.8138275634765,4973.116223412655
1.6789397993311037,840.2746653213603,839.839093509689,0.18483065003344676,0.29335098918989394,0.2006490108101061,0.3547195589364661,2082.7170312402054,4975.764157854905
1.6812619843924193,840.385499160247,839.9507900442878,0.18498252224882866,0.29340593677744864,0.20059406322255136,0.3547195589364664,2082.6206618107362,4978.410066005198
1.6835841694537348,840.4961455500777,840.0622654025495,0.1851337494379182,0.2934606509935562,0.20053934900644377,0.35471955893646673,2082.5247016780936,4981.053950449463
1.6859063545150503,840.6066133154895,840.1735295221936,0.18528435844154628,0.29351514154926833,0.2004848584507317,0.35471955893646706,2082.42913381062,4983.695813811856
1.6882285395763659,840.7169109991122,840.2845920205745,0.18543437524399575,0.293569417845736,0.20043058215426401,0.3547195589364674,2082.333941720174,4986.33565875316
1.6905507246376814,840.8270468719635,840.3954622060269,0.18558382500595705,0.2936234889861335,0.2003765110138665,0.35471955893646767,2082.23910944122,4988.9734879692205
1.692872909698997,840.9370289434668,840.506149088872,0.18573273209606755,0.2936773637870692,0.2003226362129308,0.354719558936468,2082.1446215108126,4991.609304189469
1.6951950947603123,841.0468649711041,840.6166613920831,0.1858811201211258,0.293731050789517,0.20026894921048302,0.35471955893646834,2082.050462949426,4994.243110175482
1.6975172798216278,841.15656246972,840.7270075616158,0.18602901195505808,0.2937845582692965,0.2002154417307035,0.35471955893646867,2081.956619242575,4996.874908719606
1.6998394648829434,841.2661287204644,840.8371957763952,0.18617642976660506,0.2938378942470903,0.2001621057529097,0.354719558936469,2081.863076323242,4999.504702643629
1.702161649944259,841.3755707794134,840.947233957974,0.1863233950458985,0.2938910664980591,0.20010893350194092,0.35471955893646934,2081.769820555018,5002.132494797511
1.7044838350055744,841.4848954858508,841.057129779857,0.186469928629876,0.29394408256103716,0.20005591743896284,0.35471955893646967,2081.6768387159736,5004.758288058155
1.70680602006689,841.5941094702321,841.1668906764995,0.18661605072661167,0.293996949747335,0.20000305025266504,0.35471955893647,2081.5841179832196,5007.382085328227
1.7091282051282055,841.7032191618458,841.2765238519905,0.18676178093865076,0.2940496751491818,0.1999503248508182,0.35471955893647034,2081.4916459181,5010.003889535024
1.7114503901895208,841.8122307961712,841.3860362884201,0.18690713828533742,0.29410226564780395,0.19989773435219607,0.35471955893647067,2081.399410452027,5012.623703629385
1.7137725752508364,841.9211504219528,841.4954347539439,0.18705214122421535,0.2941547279211674,0.1998452720788326,0.354719558936471,2081.3073998728973,5015.241530584636
1.716094760312152,842.0299839079865,841.6047258105463,0.18719680767149094,0.2942070684513816,0.19979293154861835,0.35471955893647134,2081.2156028121103,5017.857373395586
1.7184169453734672,842.1387369496526,841.7139158215197,0.1873411550216966,0.2942592935318136,0.19974070646818634,0.35471955893647167,2081.1240082320896,5020.471235077556
1.7207391304347828,842.2474150751731,841.8230109586561,0.18748520016646028,0.29431140927387894,0.19968859072612105,0.35471955893647206,2081.032605414374,5023.083118665441
1.7230613154960983,842.3560236516361,841.9320172091714,0.18762895951255915,0.29436342161357326,0.19963657838642673,0.3547195589364724,2080.9413839481595,5025.693027212815
1.7253835005574139,842.4645678907711,842.0409403823627,0.187772448999181,0.29441533631771777,0.1995846636822822,0.3547195589364727,2080.8503337193483,5028.300963791061
1.7277056856187294,842.5730528544973,842.1497861160099,0.18791568411447962,0.2944671589899491,0.19953284101005092,0.35471955893647306,2080.7594449000435,5030.906931488545
1.7300278706800447,842.6814834602499,842.2585598825307,0.18805867991144729,0.29451889507646145,0.19948110492353852,0.35471955893647344,2080.6687079384765,5033.510933409809
1.7323500557413603,842.7898644860948,842.367266994896,0.18820145102313354,0.29457054987151354,0.19942945012848648,0.3547195589364738,2080.5781135493494,5036.1129726747995
1.7346722408026758,842.8982005756368,842.4759126123159,0.1883440116772328,0.29462212852270575,0.19937787147729427,0.3547195589364741,2080.4876527045813,5038.713052418129
1.7369944258639913,843.0064962427375,842.5845017457037,0.1884863757100953,0.2946736360360496,0.19932636396395037,0.3547195589364745,2080.397316624414,5041.311175788359
1.7393166109253069,843.1147558760391,842.6930392629248,0.18862855658014513,0.2947250772808225,0.19927492271917752,0.35471955893647483,2080.3070967689014,5043.907345947306
1.7416387959866224,843.2229837433139,842.8015298938423,0.18877056738077963,0.2947764569942345,0.1992235430057655,0.3547195589364752,2080.2169848297217,5046.501566069382
1.743960981047938,843.3311839956355,842.909978235161,0.18891242085272147,0.2948277797858976,0.19917222021410244,0.35471955893647555,2080.1269727223403,5049.093839340958
1.7462831661092533,843.439360671391,843.0183887550854,0.18905412939590893,0.29487905014212734,0.19912094985787268,0.35471955893647594,2080.0370525784647,5051.684168959743
1.7486053511705688,843.5475177001326,843.1267657977928,0.18919570508089903,0.2949302724300688,0.1990697275699312,0.35471955893647633,2079.947216738809,5054.272558134194
1.7509275362318844,843.6556589062699,843.2351135877275,0.18933715965978562,0.29498145090164657,0.19901854909835343,0.35471955893647666,2079.857457746166,5056.859010082941
1.7532497212931997,843.7637880126308,843.343436233733,0.18947850457675575,0.2950325896973841,0.19896741030261592,0.35471955893647705,2079.7677683387096,5059.443528034238
1.7555719063545152,843.8719086438739,843.451737733018,0.18961975097817899,0.295083692850054,0.19891630714994601,0.3547195589364774,2079.678141443589,5062.0261152254325
1.7578940914158308,843.9800243297653,843.560021974966,0.1897609097223075,0.2951347642881877,0.1988652357118123,0.3547195589364778,2079.5885701707793,5064.60677490245
1.760216276477146,844.0881385083385,843.6682927448011,0.1899019913886355,0.29518580783946147,0.1988141921605385,0.35471955893647816,2079.499047807137,5067.185510319301
1.7625384615384616,844.1962545289223,843.7765537271058,0.19004300628686466,0.29523682723394035,0.19876317276605962,0.35471955893647855,2079.409567810715,5069.762324737609
1.7648606465997771,844.3043756550524,843.8848085092031,0.19018396446552094,0.2952878261071956,0.19871217389280435,0.35471955893647894,2079.320123805293,5072.3372214261435
1.7664087699739877,844.376460816198,843.9569766482463,0.19027790992129567,0.29532181570920124,0.19867818429079875,0.35471955893647916,2079.2605113873697,5074.052755430328
1.767956893348198,844.4485505841582,844.02914459859,0.19037183736869476,0.29535579879575047,0.19864420120424955,0.35471955893647944,2079.200910396533,5075.767439537887
1.7695050167224082,844.5206458658713,844.1013133551762,0.1904657496020238,0.2953897763778271,0.1986102236221729,0.35471955893647966,2079.1413190596754,5077.481274722086
1.7718272017837235,844.6288010733789,844.20957013605,0.19060659542435737,0.295440734600402,0.19855926539959798,0.35471955893648005,2079.0519463491555,5080.050437898874
1.774149386845039,844.7369736371676,844.3178341566219,0.19074742227121244,0.2954916859576213,0.1985083140423787,0.35471955893648044,2078.96258567939,5082.617696483841
1.7764715719063546,844.845166431801,844.4261085642742,0.19088823900389715,0.2955426336555191,0.19845736634448088,0.3547195589364808,2078.8732314274985,5085.183053775165
1.7787937569676702,844.9533822613622,844.5343964268666,0.19102905426800776,0.29559358082208465,0.19840641917791535,0.3547195589364812,2078.78387810748,5087.746513075734
1.7811159420289857,845.0616238616846,844.642700735312,0.1911698765000738,0.2956445305096666,0.1983554694903334,0.3547195589364816,2078.6945203659957,5090.308077692795
1.7834381270903013,845.1698939025175,844.7510244060667,0.19131071393404248,0.2956954856973189,0.19830451430268106,0.354719558936482,2078.6051529782526,5092.867750937606
1.7857603121516168,845.2781949896138,844.8593702835275,0.19145157460752654,0.2957464492930616,0.1982535507069384,0.3547195589364824,2078.515770844041,5095.4255361251
1.7880824972129323,845.3865296667673,844.9677411423562,0.19159246636795743,0.29579742413610666,0.1982025758638933,0.3547195589364828,2078.4263689838294,5097.981436573565
1.7904046822742479,845.494900417824,845.0761396897461,0.1917333968787231,0.295848412999079,0.198151587000921,0.3547195589364832,2078.3369425348696,5100.535455604335
1.7927268673355634,845.6033096686765,845.1845685676415,0.19187437362533738,0.2958994185902483,0.19810058140975167,0.3547195589364836,2078.2474867472824,5103.08759654149
1.795049052396879,845.7117597893093,845.2930303549501,0.19201540392193914,0.2959504435558807,0.1980495564441193,0.354719558936484,2078.157996979933,5105.637862711566
1.7973712374581943,845.8202530959757,845.4015275698035,0.1921564949184619,0.2960014904828325,0.19799850951716755,0.35471955893648444,2078.0684686958825,5108.186257443283
1.7996934225195098,845.9287918536494,845.510062671953,0.19229765360911608,0.296052561901619,0.19794743809838097,0.3547195589364848,2077.9788974570038,5110.732784067274
1.8020156075808254,846.0373782789895,845.6186380654539,0.19243888684321858,0.2961036602903332,0.19789633970966683,0.3547195589364852,2077.889278917113,5113.2774459158445
1.804337792642141,846.1460145442534,845.7272561019088,0.19258020134030004,0.29615478808011086,0.19784521191988916,0.35471955893648566,2077.7996088123796,5115.820246322734
1.8066599777034564,846.2547027828842,845.8359190847235,0.1927216037126857,0.29620594766330094,0.19779405233669908,0.35471955893648605,2077.7098829469987,5118.36118862291
1.8089821627647718,846.3634450980339,845.9446292751622,0.19286310050111385,0.2962571414063519,0.19774285859364807,0.3547195589364865,2077.620097170593,5120.9002761523925
1.8113043478260873,846.4722435762028,846.0533889015617,0.19300469823302013,0.2963083716708996,0.19769162832910045,0.3547195589364869,2077.5302473412244,5123.437512248134
1.8136265328874028,846.5811003097617,846.1622001740533,0.1931464035200947,0.2963596408490629,0.19764035915093708,0.3547195589364873,2077.440329263492,5125.972900247984
1.8159487179487181,846.6900174348629,846.2710653088454,0.19328822322382844,0.2964109514233393,0.1975890485766607,0.35471955893648777,2077.3503385834856,5128.506443490801
1.8182709030100337,846.7989971959294,846.3799865690489,0.19343016473838254,0.296462306068947,0.19753769393105303,0.35471955893648816,2077.260270609293,5131.038145316788
1.8205930880713492,846.9080420559534,846.4889663340432,0.19357223647556077,0.2965137078292887,0.19748629217071126,0.3547195589364886,2077.170120003265,5133.56800906826
1.8229152731326645,847.0171548853086,846.5980072178337,0.19371444869595508,0.2965651604166616,0.1974348395833384,0.35471955893648904,2077.079880254615,5136.096038091088
1.82523745819398,847.1263392841046,846.7071122708894,0.1938568149283427,0.29661666872579673,0.19738333127420324,0.35471955893648943,2076.989542778755,5138.622235737347
1.8275596432552956,847.2356001283315,846.8162853223223,0.19399935437353635,0.2966682397035761,0.1973317602964239,0.3547195589364899,2076.8990953919465,5141.146605369979
1.8298818283166112,847.3449444814311,846.9255315524958,0.1941420959118782,0.2967198837989492,0.19728011620105076,0.3547195589364903,2076.8085197683745,5143.669150370856
1.8322040133779267,847.4543830743468,847.0348584278864,0.19428508459435637,0.296771617311429,0.19722838268857107,0.35471955893649076,2076.7177873212554,5146.189874154439
1.8345261984392423,847.5639325897346,847.1442771597074,0.19442839161401743,0.2968234659987626,0.19717653400123739,0.3547195589364912,2076.6268528755513,5148.708780190269
1.8368483835005578,847.6736188621177,847.2538047940956,0.1945721281403948,0.2968754700822485,0.19712452991775148,0.35471955893649165,2076.5356458894275,5151.225872038477
1.839170568561873,847.7834805221787,847.363466729055,0.1947164606803262,0.2969276898043018,0.19707231019569824,0.3547195589364921,2076.444060707161,5153.741153401863
1.8414927536231886,847.8935710974107,847.4732985924525,0.19486161870631313,0.29698020818840587,0.19701979181159412,0.35471955893649254,2076.351951718614,5156.2546281926725
1.8438149386845042,848.0039548392762,847.5833447820909,0.19500787299373268,0.2970331232014845,0.1969668767985155,0.354719558936493,2076.2591471052056,5158.766300596721
1.8461371237458197,848.1146858220376,847.69364757416,0.19515543739045305,0.2970865122140062,0.19691348778599377,0.35471955893649343,2076.165511171298,5161.27617508457
1.8484593088071353,848.2257167401272,847.8041971583316,0.19530404726450257,0.2971402794817403,0.19685972051825967,0.3547195589364939,2076.071211837219,5163.7842562069645
1.849620401337793,848.2811927230164,847.859487251578,0.1953780248361991,0.2971670446743574,0.19683295532564266,0.3547195589364941,2076.0242698975103,5165.037625422942
1.8507814938684506,848.3363105880215,847.9146097830983,0.19545023931594385,0.29719317197775186,0.1968068280222481,0.3547195589364943,2075.9784467152062,5166.29054711658
1.8519425863991084,848.3904321917853,847.9692148713285,0.19551774247286788,0.2972175947177242,0.19678240528227584,0.3547195589364946,2075.935613069145,5167.543020117049
1.8531036789297661,848.4427268986374,848.0228257360466,0.19557675758412188,0.2972389464704757,0.19676105352952425,0.3547195589364948,2075.898165451835,5168.7950414120405
1.8554258639910817,848.5416942419981,848.1266985329207,0.19566948996497838,0.2972724971802182,0.19672750281978177,0.35471955893649526,2075.839322781937,5171.297711618917
1.8565869565217392,848.5896537066133,848.1775194954097,0.19570956745050153,0.2972869972725439,0.19671300272745615,0.3547195589364955,2075.813891899766,5172.548354333035
1.857748049052397,848.6372197356128,848.227898523634,0.19574844182989365,0.2973010620793282,0.19669893792067178,0.3547195589364957,2075.789224439997,5173.798533738728
1.8592961724266075,848.700315892512,848.2945426109299,0.19579972160800133,0.2973196151773405,0.19668038482265945,0.35471955893649604,2075.756685223083,5175.464718412274
1.8608442958008178,848.763173159645,848.3606775168091,0.1958509229488789,0.29733813989664937,0.19666186010335066,0.3547195589364963,2075.724195777953,5177.130078840162
1.862392419175028,848.8258463771406,848.4263620393641,0.19590221828657686,0.297356698624144,0.19664330137585603,0.35471955893649665,2075.691646687812,5178.79461526958
1.8639405425492386,848.8883612776549,848.491638895689,0.19595364591818887,0.2973753052157683,0.19662469478423164,0.354719558936497,2075.659013651513,5180.458328064585
1.8654886659234489,848.9507352653033,848.556544484306,0.19600521059861403,0.29739396139185187,0.19660603860814813,0.35471955893649726,2075.626293651868,5182.121217654039
1.8670367892976591,849.0129829094841,848.6211116222539,0.19605690969625175,0.2974126662002777,0.19658733379972232,0.3547195589364976,2075.5934883587415,5183.78328451581
1.8685849126718697,849.0751174006775,848.685370409076,0.19610873973278287,0.29743141838258474,0.19656858161741522,0.3547195589364979,2075.560599979275,5185.444529170495
1.87013303604608,849.1371509499318,848.7493485867103,0.1961606978316892,0.2974502168980448,0.19654978310195523,0.3547195589364982,2075.527630338743,5187.1049521777495
1.8716811594202902,849.1990949157829,848.8130717569992,0.19621278188783334,0.2974690609850159,0.19653093901498409,0.35471955893649854,2075.494580772946,5188.7645541333295
1.8732292827945003,849.2609598638285,848.8765635531119,0.19626499045180593,0.29748795011909973,0.19651204988090026,0.35471955893649887,2075.4614522015954,5190.423335666427
1.8747774061687108,849.3227556116559,848.9398457909431,0.1963173225804467,0.29750688395905955,0.19649311604094047,0.3547195589364992,2075.4282452231673,5192.081297437162
1.876325529542921,849.3844912716085,849.0029386078029,0.1963697777098738,0.297525862300882,0.19647413769911798,0.3547195589364995,2075.3949601954687,5193.738440134224
1.8778736529171314,849.4461752935881,849.0658605907292,0.19642235555796292,0.29754488504249427,0.19645511495750576,0.3547195589364998,2075.36159729752,5195.394764472658
1.8794217762913419,849.5078155076257,849.1286288954183,0.19647505605184185,0.29756395215753084,0.1964360478424691,0.35471955893650015,2075.3281565755615,5197.050271191775
1.8809698996655522,849.5694191655781,849.1912593564205,0.19652787927459875,0.2975830636760534,0.1964169363239466,0.3547195589365005,2075.2946379768696,5198.704961053225
1.8825180230397625,849.6309929813882,849.2537665891568,0.19658082542617006,0.297602219670399,0.19639778032960095,0.35471955893650076,2075.2610413745765,5200.358834839188
1.884066146413973,849.6925431695428,849.3161640842876,0.19663389479466534,0.2976214202448063,0.1963785797551937,0.3547195589365011,2075.227366585865,5202.011893350698
1.8856142697881833,849.7540754815044,849.3784642949481,0.19668708773528093,0.29764066552778573,0.1963593344722143,0.3547195589365014,2075.193613385347,5203.664137406089
1.8871623931623935,849.8155952400035,849.4406787173442,0.19674040465473688,0.29765995566648923,0.1963400443335108,0.35471955893650176,2075.1597815149416,5205.315567839561
1.888710516536604,849.8771073711695,849.5028179651813,0.19679384599974412,0.29767929082253736,0.1963207091774626,0.3547195589365021,2075.125870691191,5206.966185499847
1.890258639910814,849.9386164345161,849.5648918383703,0.19684741224837635,0.2976986711688981,0.19630132883110193,0.3547195589365024,2075.0918806107375,5208.615991248985
1.8918067632850244,850.0001266508783,849.6269093864463,0.19690110390368834,0.29771809688757717,0.19628190311242286,0.35471955893650275,2075.0578109543712,5210.26498596119
1.8933548866592347,850.061641928341,849.688878967076,0.1969549214888027,0.2977375681678412,0.1962624318321588,0.3547195589365031,2075.023661390148,5211.913170521797
1.894903010033445,850.1231658863052,849.7508083000401,0.19700886554324037,0.29775708520488964,0.19624291479511036,0.3547195589365034,2074.989431575719,5213.5605458263035
1.8972251950947605,850.2154753659865,849.8436422859137,0.19709001996785494,0.2977864469932898,0.19621355300671017,0.3547195589365039,2074.9379356152544,5216.03009340939
1.8995473801560758,850.3078221630888,849.9364234607308,0.19717146210808176,0.29781591287761533,0.19618408712238464,0.3547195589365044,2074.8862570869032,5218.497825292388
1.9018695652173914,850.4002154734881,850.0291712185465,0.19725319392186597,0.2978454835662537,0.19615451643374635,0.3547195589365049,2074.834394748265,5220.96374460094
1.904191750278707,850.4926635156106,850.12190280023,0.1973352174035374,0.29787515978075607,0.19612484021924392,0.3547195589365054,2074.7823473338526,5223.427854492902
1.9065139353400224,850.5851736424424,850.2146335410092,0.19741753457720032,0.29790494225344655,0.1960950577465535,0.3547195589365059,2074.7301135592843,5225.890158153941
1.908836120401338,850.6777524408517,850.3073770896478,0.19750014749182462,0.2979348317256453,0.19606516827435475,0.3547195589365064,2074.677692124402,5228.350658793635
1.9111583054626535,850.7704058195939,850.4001456024702,0.19758305821737532,0.2979648289462686,0.1960351710537314,0.3547195589365069,2074.6250817157234,5230.809359642032
1.913480490523969,850.8631390872656,850.4929499151177,0.19766626884171346,0.29799493467070776,0.19600506532929224,0.3547195589365075,2074.5722810084108,5233.2662639466
1.9158026755852844,850.955957021363,850.585799694594,0.19774978146815042,0.2980251496599438,0.19597485034005618,0.354719558936508,2074.519288667824,5235.721374969546
1.9181248606466,851.0488639294117,850.6787035738382,0.197833598213346,0.2980554746797873,0.1959445253202127,0.3547195589365085,2074.4661033508514,5238.174695985436
1.9204470457079155,851.1418637030991,850.7716692708419,0.19791772120558146,0.2980859105002535,0.19591408949974648,0.354719558936509,2074.412723707007,5240.626230279103
1.922769230769231,851.2349598661805,850.8647036940696,0.19800215258322965,0.2981164578950089,0.19588354210499115,0.3547195589365095,2074.359148379401,5243.075981143792
1.9250914158305465,851.3281556168986,850.9578130357668,0.19808689449350633,0.29814711764091906,0.19585288235908094,0.3547195589365101,2074.305376005535,5245.523951879524
1.927413600891862,851.4214538655259,851.0510028545378,0.1981719490913772,0.29817789051765387,0.19582210948234616,0.3547195589365106,2074.2514052179886,5247.970145791661
1.9297357859531776,851.5148572675869,851.1442781484233,0.19825731853858233,0.2982087773073339,0.19579122269266608,0.35471955893651114,2074.1972346450466,5250.414566189628
1.932057971014493,851.6083682532604,851.2376434195685,0.19834300500279312,0.2982397787942259,0.19576022120577408,0.35471955893651164,2074.142862911228,5252.857216385793
1.9343801560758085,851.7019890534073,851.331102731456,0.19842901065690635,0.29827089576448707,0.19572910423551293,0.3547195589365122,2074.0882886377362,5255.29809969448
1.936702341137124,851.7957217225933,851.4246597595434,0.19851533767838256,0.29830212900592573,0.19569787099407426,0.35471955893651275,2074.03351044288,5257.737219431087
1.9390245261984396,851.8895681594721,851.5183178360779,0.19860198824871392,0.29833347930780896,0.19566652069219104,0.35471955893651325,2073.978526942409,5260.174578911335
1.941346711259755,851.9835301248191,851.6120799897479,0.19868896455294155,0.29836494746068776,0.19563505253931227,0.3547195589365138,2073.9233367498205,5262.610181450576
1.9436688963210706,852.0776092574774,851.7059489807609,0.19877626877918542,0.2983965342562271,0.19560346574377288,0.35471955893651436,2073.867938476659,5265.044030363206
1.9459910813823862,852.1718070884922,851.7999273318937,0.1988639031183465,0.29842824048709815,0.19557175951290184,0.3547195589365149,2073.812330732704,5267.476128962138
1.9483132664437015,852.266125053598,851.8940173559557,0.19895186976375942,0.29846006694685256,0.19553993305314743,0.35471955893651547,2073.75651212619,5269.906480558345
1.950635451505017,852.3605645042682,851.9882211800854,0.1990401709108884,0.29849201442981244,0.19550798557018753,0.354719558936516,2073.7004812640025,5272.3350884604515
1.9529576365663326,852.4551267175079,852.0825407672563,0.1991288087571482,0.2985240837310057,0.1954759162689943,0.3547195589365166,2073.6442367517857,5274.761955974381
1.955279821627648,852.5498129044973,852.1769779352915,0.19921778550163988,0.29855627564607023,0.1954437243539298,0.35471955893651713,2073.5877771941164,5277.187086403045
1.9576020066889634,852.6446242182523,852.2715343736919,0.19930710334499407,0.2985885909711974,0.19541140902880264,0.3547195589365177,2073.5311011946005,5279.610483046072
1.959924191750279,852.739561760404,852.3662116585266,0.19939676448924082,0.2986210305030848,0.1953789694969152,0.35471955893651824,2073.4742073559555,5282.032149199565
1.9622463768115945,852.8346265871876,852.4610112655979,0.1994867711376491,0.2986535950388784,0.19534640496112157,0.3547195589365188,2073.417094280113,5284.4520881558965
1.96456856187291,852.9298197147547,852.555934582097,0.19957712549466086,0.29868628537614855,0.19531371462385141,0.35471955893651935,2073.3597605682594,5286.870303203528
1.9668907469342254,853.02514212386,852.6509829169071,0.1996678297657723,0.29871910231284693,0.19528089768715307,0.3547195589365199,2073.302204820913,5289.286797626851
1.969212931995541,853.1205947640193,852.7461575097227,0.19975888615748036,0.2987520466472873,0.19524795335271275,0.3547195589365205,2073.2444256379576,5291.701574706047
1.9715351170568565,853.2161785571769,852.8414595391126,0.19985029687719397,0.29878511917811335,0.19521488082188665,0.3547195589365211,2073.186421618697,5294.114637716974
1.973857302118172,853.3118944009626,852.9368901296567,0.19994206413321008,0.2988183207042902,0.19518167929570976,0.35471955893652163,2073.1281913618723,5296.525989931063
1.9761794871794875,853.4077431715696,853.0324503582575,0.20003419013468418,0.2988516520250935,0.19514834797490646,0.35471955893652224,2073.06973346568,5298.935634615226
1.9785016722408029,853.5037257263006,853.128141259724,0.2001266770915963,0.29888511394009726,0.19511488605990274,0.3547195589365228,2073.0110465277926,5301.343575031786
1.9808238573021184,853.5998429058196,853.22396383171,0.20021952721473213,0.2989187072491669,0.19508129275083308,0.3547195589365234,2072.952129145372,5303.749814438408
1.983146042363434,853.6960955361484,853.3199190390842,0.20031274271567637,0.298952432752457,0.19504756724754305,0.354719558936524,2072.892979915073,5306.154356088052
1.9854682274247495,853.7924844304323,853.4160078177962,0.20040632580681383,0.2989862912504115,0.1950137087495885,0.35471955893652457,2072.833597433042,5308.5572032289165
1.987790412486065,853.8890103905038,853.5122310782966,0.20050027870133322,0.29902028354376536,0.19497971645623466,0.3547195589365252,2072.7739802949172,5310.958359104413
1.9901125975473803,853.9856742082675,853.6085897085632,0.2005946036132417,0.2990544104335495,0.19494558956645044,0.3547195589365258,2072.714127095815,5313.357826953126
1.9924347826086959,854.0824766669233,853.7050845767766,0.200689302757366,0.2990886727210916,0.1949113272789084,0.35471955893652635,2072.6540364303332,5315.755610008793
1.9947569676700114,854.1794185420495,853.8017165336886,0.2007843783493602,0.2991230712080184,0.19487692879198157,0.35471955893652696,2072.5937068925446,5318.1517115002825
1.9970791527313267,854.2765006025727,853.8984864147216,0.2008798326057674,0.29915760669627844,0.1948423933037216,0.35471955893652757,2072.5331370759573,5320.546134651581
1.999401337792642,854.3737236116107,853.9953950418197,0.20097566774400066,0.2991922799881349,0.19480772001186508,0.3547195589365282,2072.472325573528,5322.9388826817785
2.0017235228539576,854.4710883272362,854.0924432250944,0.20107188598241055,0.29922709188619034,0.19477290811380968,0.3547195589365288,2072.4112709776186,5325.329958805069
2.004045707915273,854.5685955031406,854.1896317642759,0.20116848954028937,0.29926204319338784,0.19473795680661213,0.3547195589365294,2072.3499718799917,5327.719366230736
2.0063678929765887,854.6662458892287,854.2869614499996,0.201265480637912,0.29929713471302616,0.19470286528697386,0.35471955893653,2072.288426871789,5330.1071081631635
2.0086900780379042,854.7640402321477,854.3844330649464,0.20136286149657398,0.29933236724877316,0.19466763275122684,0.3547195589365306,2072.2266345435028,5332.493187801825
2.0110122630992198,854.8619792757494,854.4820473848495,0.20146063433860956,0.2993677416046726,0.19463225839532738,0.35471955893653123,2072.1645934849666,5334.8776083412995
2.0133344481605353,854.9600637615166,854.5798051793934,0.2015588013874797,0.29940325858517597,0.19459674141482405,0.3547195589365319,2072.1023022852987,5337.260372971266
2.015656633221851,855.0582944289231,854.677707213002,0.20165736486776747,0.2994389189951405,0.19456108100485947,0.3547195589365325,2072.039759532907,5339.641484876522
2.0179788182831664,855.1566720157624,854.77575424554,0.20175632700522622,0.2994747236398471,0.19452527636015288,0.3547195589365331,2071.9769638154553,5342.02094723698
2.020301003344482,855.2551972584457,854.8739470329393,0.2018556900268466,0.2995106733250242,0.19448932667497582,0.35471955893653373,2071.9139137198217,5344.398763227689
2.023784280936455,855.403263585353,855.0215111497909,0.2020054910916962,0.29956487156731504,0.19443512843268498,0.35471955893653473,2071.818858524129,5347.962407203941
2.027267558528428,855.5516662701054,855.1694074357302,0.20215620668562098,0.2996194006875502,0.19438059931244978,0.3547195589365357,2071.723223020544,5351.5223646590275
2.0307508361204016,855.7004077877134,855.3176384073718,0.20230784434150575,0.2996742634111384,0.1943257365888616,0.3547195589365366,2071.6270024291284,5355.0786462475
2.0342341137123747,855.8494906114624,855.4662065725391,0.20246041159955522,0.2997294624661366,0.19427053753386345,0.3547195589365376,2071.5301919652993,5358.631262599607
2.037717391304348,855.9989172140318,855.6151144325378,0.20261391600774506,0.29978500058341323,0.1942149994165868,0.35471955893653856,2071.432786839542,5362.180224321406
2.0412006688963213,856.1486900684106,855.7643644840464,0.20276836512209606,0.2998408804967476,0.19415911950325235,0.35471955893653956,2071.334782257239,5365.725541994899
2.044683946488295,856.2988116487176,855.91395922073,0.20292376650714256,0.29989710494299937,0.19410289505700065,0.35471955893654056,2071.236173418368,5369.267226178148
2.048167224080268,856.4492844308855,856.0639011345926,0.2030801277362919,0.29995367666223804,0.19404632333776198,0.35471955893654156,2071.136955517277,5372.805287405421
2.051650501672241,856.6001108932593,856.2141927171268,0.20323745639222482,0.30001059839788863,0.1939894016021114,0.35471955893654256,2071.037123742431,5376.339736187326
2.0551337792642146,856.7512935171197,856.364836460295,0.20339576006731516,0.3000678728968829,0.19393212710311705,0.35471955893654356,2070.9366732761428,5379.870583010949
2.0586170568561877,856.9028347871387,856.515834857365,0.20355504636402644,0.30012550290980333,0.19387449709019672,0.3547195589365446,2070.835599294324,5383.397838340002
2.0621003344481608,857.0547371917852,856.6671904036311,0.20371532289533736,0.3001834911910365,0.19381650880896353,0.3547195589365456,2070.733896966213,5386.921512614961
2.0655836120401343,857.2070032236868,856.8189055970365,0.20387659728515983,0.3002418404989248,0.19375815950107522,0.35471955893654666,2070.6315614541113,5390.441616253217
2.0690668896321074,857.3596353799562,856.9709829387168,0.20403887716877497,0.300300553595924,0.193699446404076,0.3547195589365477,2070.528587913105,5393.958159649222
2.0725501672240805,857.5126361624854,857.1234249334739,0.20420217019324738,0.3003596332487532,0.1936403667512468,0.3547195589365487,2070.4249714908046,5397.471153174634
2.076033444816054,857.66600807822,857.2762340901983,0.20436648401788182,0.30041908222855995,0.19358091777144007,0.3547195589365498,2070.3207073270532,5400.980607178476
2.079516722408027,857.8197536394151,857.429412922246,0.2045318263146723,0.30047890331108273,0.19352109668891726,0.3547195589365509,2070.2157905536415,5404.486531987272
2.083,857.9738753638684,857.582963947776,0.20469820476873865,0.3005390992768091,0.19346090072319086,0.35471955893655194,2070.110216294031,5407.98893790521
2.0864832775919737,858.1283757751389,857.7368896900542,0.20486562707875744,0.30059967291113143,0.19340032708886856,0.354719558936553,2070.003979663082,5411.487835214287
2.089966555183947,858.2832574027647,857.8911926777382,0.2050341009574417,0.3006606270045204,0.19333937299547962,0.3547195589365541,2069.897075766748,5414.9832341744595
2.09344983277592,858.4385227824721,858.0458754451417,0.20520363413202775,0.3007219643527013,0.19327803564729873,0.35471955893655516,2069.7894997017656,5418.4751450238
2.0969331103678934,858.5941744563646,858.2009405324749,0.2053742343447,0.3007836877568077,0.19321631224319233,0.35471955893655627,2069.6812465553876,5421.963577978648
2.1004163879598665,858.7502149731217,858.356390486078,0.20554590935309372,0.3008458000235632,0.1931541999764368,0.3547195589365574,2069.572311405061,5425.448543233755
2.1038996655518396,858.9066468881878,858.5122278586429,0.20571866693077606,0.3009083039654558,0.1930916960345442,0.3547195589365585,2069.4626893181253,5428.930050962451
2.107382943143813,859.0634727639508,858.6684552094207,0.20589251486769689,0.3009712024009005,0.1930287975990995,0.35471955893655965,2069.3523753515233,5432.408111316788
2.1108662207357862,859.2206951699321,858.8250751044285,0.20606746097070983,0.3010344981544284,0.19296550184557162,0.35471955893656076,2069.2413645514716,5435.88273442769
2.1143494983277593,859.3783166829635,858.9820901166468,0.2062435130640421,0.3010981940568561,0.19290180594314388,0.3547195589365619,2069.1296519531625,5439.353930405116
2.117832775919733,859.5363398873699,859.1395028262142,0.2064206789898051,0.301162292945471,0.19283770705452902,0.35471955893656304,2069.0172325804406,5442.821709338211
2.121316053511706,859.6947673751496,859.2973158206191,0.20659896660849533,0.301226797664212,0.192773202335788,0.3547195589365642,2068.9041014454833,5446.28608129545
2.124799331103679,859.853601746153,859.4555316948876,0.2067783837994972,0.30129171106385183,0.19270828893614816,0.35471955893656537,2068.7902535484845,5449.747056324804
2.1317658862876256,860.1725015775731,859.7731825019268,0.20714063851350245,0.30142277534420503,0.192577224655795,0.3547195589365677,2068.5603874072463,5456.658855690118
2.145698996655519,860.8152991462476,860.4134337356697,0.20787905171940804,0.3016899343118972,0.19231006568810274,0.35471955893657253,2068.0918325818193,5470.44213115632
2.1596321070234117,861.4649019765826,861.060425497261,0.20863643019371705,0.30196395494117423,0.19203604505882574,0.3547195589365774,2067.6112434807924,5484.172171782792
2.1735652173913045,862.1214818360987,861.7143290665491,0.20941329143931298,0.302245024465329,0.191754975534671,0.3547195589365825,2067.1182917264086,5497.84960868176
2.1874983277591977,862.7852130701287,862.375318227008,0.2102101594392242,0.30253333246218034,0.19146666753781963,0.35471955893658774,2066.6126448289792,5511.475068191146
2.2014314381270905,863.4562728003717,863.0435694635795,0.211027565234205,0.3028290710630425,0.19117092893695747,0.3547195589365931,2066.093965820387,5525.049172034899
2.2153645484949838,864.1348411285085,863.7192621654175,0.2118660475123047,0.3031324351660322,0.1908675648339678,0.3547195589365987,2065.561912879978,5538.572537484328
2.2292976588628766,864.8211013443839,864.4025788333163,0.21272615320774327,0.30344362265274255,0.19055637734725744,0.35471955893660434,2065.016138954549,5552.045777520576
2.2432307692307694,865.5152401382946,865.09370529146,0.21360843810703714,0.30376283460754044,0.19023716539245958,0.3547195589366102,2064.4562913737377,5565.4695009983125
2.2571638795986626,866.2174478167192,865.7928309029131,0.21451346745967279,0.304090275538509,0.189909724461491,0.3547195589366163,2063.882011462518,5578.844312810685
2.2710969899665554,866.9279185208709,866.500148788251,0.21544181659096331,0.30442615359917996,0.18957384640082,0.3547195589366225,2063.2929341523227,5592.1708140556175
2.2850301003344486,867.6468504475349,867.2158560467592,0.21639407151512174,0.3047706808103447,0.1892293191896553,0.3547195589366289,2062.6886875920186,5605.4496022034755
2.2989632107023414,868.3744460715625,867.9401539796029,0.21737082954613446,0.3051240732810688,0.18887592671893122,0.3547195589366355,2062.0688927602832,5618.6812712660985
2.3128963210702342,869.1109123694686,868.6732483143895,0.21837269990438848,0.3054865514281709,0.18851344857182914,0.35471955893664225,2061.4331630806696,5631.866411967238
2.3268294314381275,869.8564610438143,869.4153494307261,0.21940030431794758,0.30585834019376523,0.18814165980623482,0.35471955893664925,2060.781104040077,5645.005611914365
2.333795986622074,870.2327087768206,869.7898446033342,0.21992395465201164,0.3060477976432816,0.1879522023567184,0.35471955893665286,2060.4488254609564,5651.558166923071
2.3407625418060203,870.6113087479948,870.1666725864405,0.22045427761681202,0.3062396692602656,0.18776033073973442,0.35471955893665646,2060.1123128116633,5658.099455772013
2.347729096989967,870.9922888494224,870.545861086595,0.22099135470928707,0.3064339845304274,0.18756601546957258,0.3547195589366602,2059.7715143788982,5664.629551113013
2.3546956521739135,871.3756773107094,870.9274381435263,0.22153526831802348,0.3066307732620772,0.18736922673792278,0.3547195589366639,2059.4263778835716,5671.148525435833
2.3616622073578597,871.7614995304785,871.3114304574324,0.22208608722946435,0.3068300603422497,0.1871699396577503,0.35471955893666773,2059.0768596777375,5677.656451074144
2.3686287625418063,872.1497710970909,871.697857049173,0.22264384204469834,0.3070318568424631,0.1869681431575369,0.3547195589366716,2058.722940343694,5684.1534000539195
2.375595317725753,872.5405379591656,872.0867556768291,0.223208694493905,0.3072362212769307,0.18676377872306932,0.3547195589366755,2058.3645172567103,5690.6394443336085
2.382561872909699,872.9338303427049,872.4781573548,0.22378072985786246,0.30744318450036157,0.18655681549963848,0.3547195589366795,2058.001536302478,5697.114655817012
2.3895284280936457,873.3296785966439,872.872092889547,0.22436003447610056,0.30765277775052263,0.1863472222494774,0.35471955893668355,2057.6339426948653,5703.579106278912
2.3964949832775924,873.728113285819,873.2685930782276,0.224946695755819,0.3078650326514654,0.1861349673485346,0.35471955893668766,2057.2616809702577,5710.032867368222
2.4034615384615385,874.1291652558841,873.6676888453259,0.22554080218190795,0.3080799812171514,0.18592001878284856,0.3547195589366919,2056.8846949812005,5716.476010612032
2.410428093645485,874.5328656792024,874.0694113371932,0.22614244332774325,0.30829765585535773,0.18570234414464223,0.3547195589366961,2056.502927889547,5722.90860742026
2.417394648829432,874.9392460878399,874.4737919880401,0.22675170986653223,0.3085180893717822,0.1854819106282178,0.35471955893670043,2056.1163221592624,5729.330729090702
2.4243612040133784,875.3483383978352,874.8808625665725,0.22736869358305856,0.30874131497429247,0.1852586850257075,0.3547195589367048,2055.724819548967,5735.742446814365
2.438294314381271,876.17478841191,875.7032024459006,0.22862618531841597,0.30919627730596827,0.18480372269403175,0.35471955893671375,2054.92688715038,5748.534954684471
2.4522274247491644,877.0124793381699,876.5366928899687,0.2299156755064793,0.30966281672419155,0.18433718327580842,0.354719558936723,2054.108650362188,5761.2866986356885
2.4661605351170572,877.8616817972809,877.3816026064122,0.23123793969421816,0.3101412138229796,0.1838587861770204,0.3547195589367326,2053.269617066603,5773.998244927922
2.48009364548495,878.722673687203,878.2382074618259,0.23259377240991752,0.31063175606381693,0.18336824393618306,0.3547195589367425,2052.4092831013754,5786.67015866341
2.4940267558528433,879.5957404190907,879.1067907597508,0.2339839875749483,0.3111347379246347,0.18286526207536527,0.35471955893675267,2051.5271319985136,5799.303003975794
2.507959866220736,880.4811751388536,879.9876434815036,0.2354094189192959,0.3116504610501496,0.18234953894985037,0.35471955893676327,2050.62263472061,5811.897344220341
2.5218929765886293,881.3792789446461,880.8810645125337,0.23687092039990226,0.3121792344032204,0.18182076559677962,0.35471955893677415,2049.695249395388,5824.453742165097
2.535826086956522,882.2903611049722,881.7873608646926,0.2383693666210167,0.3127213744169315,0.18127862558306854,0.3547195589367854,2048.744421048967,5836.972760182931
2.549759197324415,883.2147392795308,882.7068478991558,0.23990565325577937,0.31327720514712265,0.18072279485287734,0.3547195589367971,2047.769581338354,5849.4549604445365
2.5567257525083615,883.6820159905051,883.1716388111639,0.24068827249126548,0.31356035792036085,0.1804396420796391,0.35471955893680307,2047.2729758926137,5855.6824295876595
2.563692307692308,884.1527397438679,883.6398495522482,0.24148069746872775,0.31384705842525235,0.18015294157474762,0.3547195589368091,2046.7701482833436,5861.900905112679
2.5671755852842812,884.3894074169152,883.8752504209411,0.24188062395403198,0.313991752407039,0.18000824759296102,0.35471955893681223,2046.5163777887115,5865.006792236615
2.570658862876255,884.6269527077568,884.111521991927,0.24228304626080402,0.3141373493806486,0.17986265061935147,0.35471955893681534,2046.2610235883942,5868.110457320641
2.574142140468228,884.8653809761042,884.348669587209,0.24268797936631895,0.31428385476488085,0.17971614523511914,0.35471955893681845,2046.0040761786693,5871.211909156174
2.577625418060201,885.1046976175849,884.5866985645551,0.24309543833590788,0.3144312740103945,0.1795687259896055,0.3547195589368216,2045.7455259999376,5874.311156536514
2.5811086956521745,885.3449080639733,884.8256143177304,0.24350543832336558,0.3145796125998545,0.17942038740014554,0.35471955893682483,2045.4853634364679,5877.408208257034
2.5845919732441476,885.586017783424,885.0654222767305,0.24391799457135735,0.31472887604807914,0.1792711239519209,0.35471955893682805,2045.223578816135,5880.503073115373
2.5880752508361207,885.828032280706,885.3061279080175,0.24433312241182545,0.3148790699021873,0.1791209300978127,0.35471955893683127,2044.9601624101647,5883.595759911635
2.591558528428094,886.0709570974369,885.5477367147544,0.24475083726639407,0.31503019974174507,0.1789698002582549,0.35471955893683454,2044.6951044328757,5886.686277448576
2.5985250836120404,886.5595600413723,886.0336860521555,0.24559409015514563,0.31533528985857906,0.1786647101414209,0.35471955893684115,2044.1600243355533,5892.860839969957
2.605491638795987,887.0518716941386,886.5233150572953,0.2464478784195905,0.31564419168960234,0.1783558083103977,0.3547195589368479,2043.6182590908377,5899.026831162078
2.6124581939799336,887.5479377394147,887.0166691010149,0.24731232870234598,0.3159569510542971,0.17804304894570291,0.3547195589368548,2043.0697283385598,5905.184321562454
2.61942474916388,888.0478044733342,887.5137941643582,0.24818756911943773,0.3162736143052272,0.1777263856947728,0.35471955893686175,2042.5143507836117,5911.333381769825
2.6263913043478264,888.5515188122245,888.0147368463539,0.24907372927295565,0.3165942283326165,0.1774057716673835,0.3547195589368689,2041.9520441879122,5917.474082450454
2.633357859531773,889.0591283003996,888.5195443718555,0.2499709402636005,0.31691884056888847,0.17708115943111152,0.3547195589368761,2041.3827253624484,5923.60649434445
2.640324414715719,889.5706811180064,889.0282645994403,0.25087933470311014,0.31724749899316196,0.17675250100683806,0.3547195589368835,2040.8063101593893,5929.7306882721
2.647290969899666,890.086226088919,889.540946029363,0.25179904672655123,0.31758025213569846,0.17641974786430153,0.354719558936891,2040.2227134642862,5935.846735140245
2.6542575250836125,890.6058126886799,890.0576378115636,0.2527302120044638,0.31791714908229585,0.17608285091770415,0.3547195589368986,2039.6318491883674,5941.954705948671
2.661224080267559,891.129491052483,890.5783897537243,0.2536729677548425,0.3182582394786235,0.17574176052137652,0.3547195589369064,2039.0336302609344,5948.054671796524
2.6681906354515057,891.6573119831942,891.1032523293753,0.2546274527549418,0.318603573534493,0.17539642646550704,0.3547195589369143,2038.4279686218713,5954.146703888761
2.675157190635452,892.1893269594032,891.6322766860436,0.25559380735288495,0.3189532020280587,0.17504679797194128,0.35471955893692236,2037.8147752142793,5960.230873542617
2.678640468227425,892.4569234883865,891.8983657021736,0.2560814800421911,0.3191296427135774,0.17487035728642256,0.3547195589369264,2037.5053259926565,5963.270032274093
2.682123745819398,892.7255881435057,892.165514653446,0.2565721734790837,0.31930717630994926,0.17469282369005076,0.3547195589369306,2037.1939599772293,5966.307252194115
2.6856070234113716,892.9953275532315,892.4337301265161,0.2570659056539229,0.31948580932611265,0.17451419067388738,0.35471955893693474,2036.8806657523437,5969.342542251815
2.6890903010033447,893.2661483897848,892.7030187517057,0.2575626946573428,0.31966554830728516,0.17433445169271483,0.3547195589369389,2036.5654318387164,5972.375911404565
2.6925735785953178,893.5380573693893,892.9733872032615,0.2580625586805868,0.31984639983508506,0.174153600164915,0.3547195589369432,2036.2482466932242,5975.407368618182
2.6960568561872913,893.8110612525252,893.2448421996152,0.25856551601583705,0.3200283705276502,0.17397162947234976,0.35471955893694745,2035.9290987086936,5978.4369228671385
2.699540133779265,894.0851668441811,893.5173905036406,0.2590715850565406,0.3202114670397566,0.1737885329602434,0.35471955893695173,2035.607976213694,5981.464583134761
2.703023411371238,894.360380994107,893.7910389229152,0.25958078429773024,0.32039569606293383,0.1736043039370662,0.3547195589369561,2035.2848674723343,5984.490358413444
2.706506688963211,894.6367105970654,894.0657943099785,0.2600931323363402,0.32058106432557953,0.1734189356744205,0.3547195589369605,2034.9597606840634,5987.514257704852
2.7099899665551845,894.9141625930829,894.3416635625922,0.2606086478715161,0.3207675785930718,0.1732324214069282,0.35471955893696494,2034.6326439834713,5990.536290020131
2.7134732441471576,895.1927439676996,894.6186536239993,0.26112734970491985,0.32095524566787914,0.17304475433212088,0.35471955893696944,2034.303505440098,5993.556464380112
2.7169565217391307,895.4724617522178,894.8967714831846,0.26164925674102846,0.32114407238966863,0.17285592761033136,0.35471955893697393,2033.9723330582428,5996.574789815521
2.7204397993311042,895.7533230239502,895.176024175133,0.26217438798742637,0.32133406563541195,0.17266593436458802,0.3547195589369785,2033.6391147767786,5999.591275367195
2.7239230769230773,896.0353349064646,895.4564187810892,0.26270276255509134,0.32152523231948854,0.17247476768051143,0.3547195589369831,2033.3038384689708,6002.605930086273
2.7274063545150504,896.3185045698281,895.7379624288158,0.2632343996586737,0.32171757939378676,0.17228242060621327,0.35471955893698776,2032.9664919423003,6005.618763034427
2.730889632107024,896.6028392308476,896.0206622928521,0.26376931861676817,0.321911113847802,0.17208888615219797,0.3547195589369924,2032.6270629382914,6008.629783284055
2.734372909698997,896.8883461533096,896.3045255947701,0.2643075388521774,0.3221058427087326,0.1718941572912674,0.3547195589369972,2032.2855391323426,6011.638999918499
2.73785618729097,897.1750326482133,896.5895596034323,0.26484907989216816,0.32230177304157187,0.17169822695842812,0.35471955893700197,2031.9419081335668,6014.646422032258
2.7413394648829437,897.4629060740034,896.8757716352461,0.2653939613687185,0.32249891194919783,0.17150108805080214,0.3547195589370068,2031.5961574846322,6017.65205873119
2.7448227424749168,897.751973836796,897.1631690544176,0.2659422030187548,0.32269726657245923,0.17130273342754077,0.3547195589370117,2031.2482746616136,6020.655919132728
2.74830602006689,898.0422602574707,897.4517567089601,0.26649389996292017,0.32289684408945035,0.1711031559105496,0.3547195861737086,2030.8981993063858,6023.6580123647545
2.7517892976588634,898.3340302409182,897.7415546446304,0.2670501225746877,0.323097651600977,0.170902348399023,0.35472002080896525,2030.5452522211074,6026.658348269236
2.7552725752508365,898.6274306725866,898.0326716391199,0.2676112795477035,0.3232996961522794,0.17070030384772064,0.3547210036634946,2030.1891740721444,6029.656937936579
2.7587558528428096,898.9225221853785,898.325218548954,0.2681774154830262,0.3235029849538692,0.1704970150461308,0.3547225436635126,2029.8299365582136,6032.653792881687
2.762239130434783,899.2193580832763,898.6192894253886,0.2687485762720286,0.3237075253825504,0.17029247461744962,0.3547246500357804,2029.467510559272,6035.648924887147
2.765722408026756,899.5179857600833,898.9149646961921,0.26932480897214595,0.3239133249600334,0.1700866750399666,0.3547273322840359,2029.1018662153604,6038.64234596695
2.7692056856187293,899.8184478550793,899.2123137567017,0.2699061617069961,0.3241203913355294,0.16987960866447058,0.35473060017026253,2028.7329729899807,6041.63406833724
2.772688963210703,900.1207831944325,899.5113970797728,0.27049268358640505,0.32432873227158726,0.1696712677284127,0.3547344636999176,2028.3607997208437,6044.624104392765
2.776172240802676,900.4250275581575,899.8122679339393,0.2710844246426911,0.3245383556325727,0.16946164436742728,0.3547389331104008,2027.985314660299,6047.612466687983
2.779655518394649,900.7312143050339,900.1149737825522,0.2716814357802303,0.32474926937529885,0.16925073062470117,0.3547440188621758,2027.6064855073391,6050.59916792196
2.7831387959866225,901.0393748818896,900.4195574231758,0.27228376873586846,0.32496148154140725,0.16903851845859272,0.3547497316320669,2027.2242794327171,6053.584220926319
2.7866220735785956,901.3495392387513,900.7260579155279,0.27289147604819447,0.3251750002511725,0.16882499974882748,0.3547560823083372,2026.8386630984471,6056.56763865573
2.7901053511705687,901.6617361673739,901.0345113372954,0.2735046110340518,0.3253898336984625,0.1686101663015375,0.35476308198722983,2026.449602672707,6059.549434180408
2.793588628762542,901.9759935774074,901.344951399851,0.27412322777096143,0.325605990146636,0.168394009853364,0.35477074197071157,2026.0570638409918,6062.529620680296
2.7970719063545157,902.2923387218086,901.6574099499564,0.2747473810843723,0.32582347792519833,0.1681765220748017,0.35477907376520396,2025.661011814205,6065.508211440578
2.800555183946489,902.610798380945,901.9719173786892,0.2753771265388534,0.32604230542706814,0.16795769457293186,0.35478808908112974,2025.2614113342458,6068.485219848315
2.804038461538462,902.9313990130782,902.2885029548822,0.27601252043250046,0.32626248110633493,0.1677375188936651,0.35479779983313225,2024.8582266775597,6071.46065938997
2.8075217391304355,903.2541668774835,902.6071950971511,0.27665361979396147,0.32648401347640665,0.16751598652359334,0.3548082181408509,2024.451421657026,6074.43454364966
2.8110050167224085,903.5791281352859,902.9280215959678,0.2773004823815908,0.3267069111084656,0.16729308889153444,0.35481935633015965,2024.040959622493,6077.406886308017
2.8144882943143816,903.9063089321504,903.2510097951033,0.27795316668432846,0.32693118263016285,0.1670688173698372,0.35483122693479074,2023.6268034602215,6080.377701141534
2.8179715719063547,904.235735466179,903.5761867400264,0.2786117319239683,0.32715683672449264,0.16684316327550736,0.3548438426982806,2023.2089155914452,6083.347002022303
2.821454849498328,904.5674340437371,903.9035792994322,0.2792762380585332,0.3273838821287968,0.16661611787120317,0.35485721657618713,2022.7872579702296,6086.3148029180975
2.8249381270903013,904.9014311254142,904.2332142649221,0.2799467457865218,0.3276123276338544,0.1663876723661456,0.3548713617385359,2022.3617920807753,6089.281117892697
2.8284214046822744,905.2377533638975,904.5651184329183,0.2806233165518214,0.32784218208301763,0.16615781791698242,0.35488629157246215,2021.9324789343027,6092.245961106453
2.8319046822742475,905.5764276351933,904.8993186721332,0.2813060125491093,0.3280734543713573,0.16592654562864265,0.35490201968501944,2021.4992790656238,6095.209346817027
2.835387959866221,905.9174810643427,905.2358419792921,0.2819948967295819,0.3283061534447821,0.16569384655521788,0.35491855990613325,2021.0621525295062,6098.171289380266
2.8388712374581946,906.2609410465403,905.5747155253015,0.28269003280686167,0.3285402882990958,0.16545971170090418,0.35493592629168064,2020.621058896926,6101.131803251212
2.8423545150501677,906.6068352643737,905.9159666936416,0.28339148526293917,0.3287758679789571,0.16522413202104289,0.35495413312668045,2020.1759572512967,6104.090902985194
2.844676700111483,906.8387975691869,906.1448020064421,0.283862661526246,0.3289337282678449,0.1650662717321551,0.35496674509248916,2019.87697571896,6106.06285774325
2.8469988851727988,907.0718625556088,906.3747145660176,0.28433669358321295,0.3290922374470288,0.16490776255297118,0.35497974139828536,2019.576182063155,6108.03419487607
2.8493210702341143,907.3060386547771,906.6057126813186,0.28481360111605725,0.32925139823098276,0.16474860176901726,0.35499312645064995,2019.273563794671,6110.004918772172
2.85164325529543,907.5413343616418,906.8378047208046,0.2852934039623716,0.32941121334290374,0.1645887866570963,0.3550069047036557,2018.9691083257055,6111.975033840696
2.8539654403567454,907.777758235683,907.0709991149002,0.28577612211571085,0.3295716855144579,0.16442831448554204,0.35502108065933335,2018.6628029694907,6113.944544511583
2.8562876254180605,908.015318901418,907.3053043582014,0.2862617757261094,0.32973281748549566,0.16426718251450437,0.3550356588681445,2018.354634939967,6115.913455235753
2.858609810479376,908.2540250486978,907.5407290114638,0.2867503851005139,0.3298946120037296,0.1641053879962704,0.35505064392945895,2018.0445913515052,6117.8817704852745
2.860931995540691,908.4938854327875,907.7772817033984,0.28724197070311697,0.3300570718243727,0.1639429281756273,0.35506604049203844,2017.7326592186992,6119.849494753545
2.863254180602007,908.7349088742229,908.0149711322954,0.2877365531555754,0.33022019970972855,0.16377980029027145,0.3550818532545246,2017.4188254562237,6121.816632555467
2.8655763656633226,908.9771042584298,908.253806067494,0.2882341532370918,0.3303839984287278,0.16361600157127223,0.3550980869659325,2017.1030768787837,6123.783188427623
2.867898550724638,909.2204805350901,908.4937953507168,0.28873479188434126,0.33054847075640353,0.16345152924359646,0.3551147464261483,2016.7854002011618,6125.74916692845
2.8702207357859537,909.4650467172324,908.7349478972783,0.2892384901912152,0.3307136194732963,0.16328638052670372,0.355131836486432,2016.46578203838,6127.714572638406
2.873704013377927,909.8341469317753,909.098877522219,0.28999982104178007,0.3309626168725526,0.16303738312744742,0.3551582896919131,2015.9826849852316,6130.661617294848
2.8771872909699,910.2059757492591,909.4654753963752,0.29076815635521575,0.3312131518324565,0.16278684816754355,0.35518573956156124,2015.4951433002004,6133.607399161398
2.8806705685618734,910.5805643429283,909.8347725708295,0.2915435692912661,0.3314652337834851,0.16253476621651494,0.35521420313420066,2015.0031105602934,6136.55193398072
2.8841538461538465,910.9579441565506,910.2068004918499,0.29232613377916705,0.3317188721614012,0.16228112783859874,0.35524369772177306,2014.5065398542422,6139.495237610827
2.8876371237458196,911.3381468779254,910.58159100546,0.2931159245007564,0.3319740763971384,0.16202592360286164,0.3552742409133422,2014.00538379322,6142.437326026014
2.891120401337793,911.7212044050837,910.9591763610248,0.29391301686763094,0.332230855904492,0.16176914409550802,0.35530585057913755,2013.4995945253368,6145.378215317638
2.894603678929766,912.1071488036181,911.3395892138271,0.2947174869909715,0.33248922006512155,0.16151077993487845,0.3553385448746351,2012.989123754786,6148.317921694692
2.8980869565217393,912.4960122532067,911.72286262659,0.2955294116423366,0.33274917821024924,0.16125082178975078,0.35537234224467384,2012.4739227667242,6151.256461484143
2.901570234113713,912.8878269809306,912.1090300698537,0.29634886820331646,0.33301073959829564,0.16098926040170436,0.35540726142760454,2011.9539424592156,6154.193851130951
2.905053511705686,913.2826251784172,912.4981254211024,0.2971759346014461,0.3332739133875134,0.1607260866124866,0.3554433214594697,2011.4291333838996,6157.130107197713
2.908536789297659,913.6804388991333,912.8901829624889,0.29801068922914825,0.33353870860245266,0.16046129139754733,0.35548054167821125,2010.8994457974243,6160.065246363832
2.9120200668896326,914.0812999312818,913.2852373769775,0.29885321084170063,0.3338051340928113,0.16019486590718868,0.3555189417279049,2010.3648297261905,6162.9992854241045
2.9155033444816056,914.4852396406644,913.6833237426745,0.2997035784292538,0.3340731984828731,0.1599268015171269,0.3555585415630178,2009.825235047563,6165.932241286592
2.9189866220735787,914.8922887765362,914.0844775250665,0.3005618710567194,0.33434291010929956,0.15965708989070046,0.35559936145268806,2009.2806115914664,6168.864130969604
2.9224698996655523,915.3024772318014,914.4887345668119,0.3014281676638392,0.3346142769444958,0.15938572305550422,0.3556414219850234,2008.7309092672513,6171.794971597586
2.9259531772575254,915.7158337468302,914.8961310746297,0.3023025468158727,0.3348873065020923,0.15911269349790771,0.35568474407141815,2008.176078221894,6174.724780395663
2.9294364548494984,916.1323855436124,915.3067036026953,0.30318508639300606,0.33516200572023974,0.15883799427976023,0.3557293489508857,2007.616069037078,6177.65357468253
2.932919732441472,916.5521578737829,915.7204890317327,0.3040758632036798,0.3354383808173627,0.15856161918263725,0.3557752581944067,2007.0508329745564,6180.581371861281
2.9364030100334455,916.9751734601374,916.1375245426807,0.30497495250344026,0.335716437113717,0.158283562886283,0.35582249370929087,2006.4803222814598,6183.508189407711
2.9398862876254186,917.4014518064337,916.5578475833145,0.30588242739647264,0.33599617881048816,0.15800382118951187,0.3558710777435529,2005.9044905700496,6186.434044855512
2.946852842809365,918.2638534107227,917.4085072097232,0.30772281096538523,0.33656072790336067,0.15743927209663933,0.35597238209222914,2004.7366883219931,6192.282939764208
2.9538193979933114,919.1394164737518,918.2727707384895,0.3095975225793567,0.3371320271676008,0.15686797283239914,0.35607935620597386,2003.5471034581446,6198.128197176737
2.960785953177258,920.0280632414388,919.150940662445,0.31150696586738585,0.3377100319393857,0.15628996806061432,0.35619219078216663,2002.3354798586063,6203.969956810882
2.9677525083612046,920.9295121943949,920.0433131279244,0.31345137490307035,0.33829463034092155,0.15570536965907847,0.3563110823867679,2001.101668993649,6209.808355844617
2.974719063545151,921.8431695981689,920.9501653298471,0.3154307163732105,0.33888560776497934,0.15511439223502066,0.35643623357424276,1999.8456920019248,6215.64352635972
2.9816856187290974,922.7679696297848,921.8717273339406,0.31744454409331524,0.3394825941719042,0.1545174058280958,0.35656785295405086,1998.567832006616,6221.475591464699
2.988652173913044,923.7021465789819,922.8081183608638,0.3194917899549382,0.3400849885402952,0.15391501145970482,0.35670615510440973,1997.2687667683078,6227.304659506789
2.9956187290969902,924.6429293209453,923.7592056770114,0.3215704812362422,0.34069185707306593,0.15330814292693407,0.35685136008878704,1995.9497480635514,6233.130815646332
3.002585284280937,925.5861749840208,924.7243086015762,0.3236773989704226,0.34130181102311064,0.1526981889768894,0.3570036920274351,1994.6128184647396,6238.95411008753
3.0095518394648835,926.5260230556942,925.7016349353667,0.3258077530224185,0.34191289258876567,0.15208710741123438,0.35716337564421263,1993.2610175178602,6244.774542723253
3.0165183946488296,927.4547613305352,926.6873685324648,0.3279550556876382,0.34252253640169866,0.1514774635983014,0.3573306290465314,1991.8984619495213,6250.592045292219
3.0234849498327763,928.3632056614485,927.6745628943822,0.3301114839956415,0.34312771349163473,0.1508722865083653,0.35750565084262714,1990.5301157697372,6256.406464653782
3.030451505016723,929.2418576330145,928.6525038752108,0.3322689843304285,0.34372534963634843,0.15027465036365156,0.35768860144478887,1989.1610893430147,6262.2175537853145
3.0374180602006695,930.0827439524402,929.6075883805656,0.3344210134363637,0.34431297534644983,0.1496870246535502,0.3578795829830377,1987.7955346454798,6268.024978156433
3.044384615384616,930.8812685535122,930.5261652936039,0.33656423600158347,0.34488935217097105,0.14911064782902891,0.358078627187677,1986.4355680754525,6273.82834121622
3.0513511705685623,931.637169292673,931.398180050954,0.33869927810888867,0.3454547407386731,0.1485452592613269,0.35828569994761045,1985.0807923565626,6279.627224296301
3.0583177257525085,932.3541572273112,932.2195523859435,0.3408301733650253,0.3460106787811181,0.14798932121888195,0.35850072289604024,1983.7286479924614,6285.421229127279
3.065284280936455,933.0386065333427,932.9922142085585,0.34296296156096456,0.3465594443322364,0.1474405556677636,0.3587236032041596,1982.3753024769296,6291.210011126744
3.0722508361204017,933.6980284202187,933.7224099496493,0.34510422299783516,0.3471034983534397,0.1468965016465603,0.3589542606730389,1981.016580326888,6296.993297739352
3.0792173913043484,934.339869195206,934.418530000324,0.34726005732050963,0.34764509720648973,0.1463549027935103,0.3591926458012683,1979.6486110562514,6302.770892816432
3.0838617614269794,934.7613334718654,934.868037832292,0.3487079558107415,0.34800573925039174,0.14599426074960825,0.35935585552882265,1978.7298574114068,6306.619396586556
3.0885061315496105,935.1796888622354,935.3087822759456,0.35016589147045774,0.34836657679888955,0.14563342320111045,0.3595225012142424,1977.8047347523602,6310.46529265542
3.093150501672241,935.5964314259708,935.7430082051629,0.35163492240994104,0.34872797813441087,0.1452720218655891,0.3596925974009329,1976.8725716627891,6314.308570295119
3.0977948717948727,936.0128459500418,936.172711004504,0.35311593196823554,0.34909024128351707,0.14490975871648293,0.3598661656556789,1975.9328076262132,6318.149227940777
3.1024392419175033,936.4300239507976,936.599630333348,0.3546096553059934,0.34945360433557976,0.14454639566442024,0.3600432338712977,1974.9849761516912,6321.987271813977
3.1070836120401344,936.848885718437,937.0252609262009,0.35611670554392744,0.34981825562008967,0.1441817443799103,0.3602238355462609,1974.0286881878546,6325.822714687991
3.1117279821627655,937.2702034190194,937.450873099804,0.3576375975142981,0.350184342994215,0.14381565700578497,0.36040800909045784,1973.0636170515702,6329.655574809696
3.116372352285396,937.6946234205261,937.8775378652008,0.3591727682961586,0.3505519819121378,0.1434480180878622,0.3605957971855413,1972.089485397446,6333.485874977467
3.121016722408027,938.1226868206296,938.3061532966507,0.3607225943739507,0.3509212622041752,0.1430787377958248,0.36078724621381053,1971.1060543299693,6337.313641765096
3.127983277591974,938.77258666928,938.9543414921899,0.3630755238656186,0.3514784084725851,0.14252159152741492,0.36108139324436994,1969.6130197276707,6343.050607564195
3.13494983277592,939.4329356435657,939.6106125674079,0.3654631349580156,0.3520395746030957,0.1419604253969043,0.36138406826621855,1968.097978163355,6348.782051472703
3.1419163879598666,940.1047158596584,940.2765255354927,0.3678862829855203,0.35260487989130945,0.14139512010869057,0.36169546144497133,1966.5603868907024,6354.50809440244
3.1488829431438132,940.7887205423757,940.9532893662182,0.3703457491404185,0.35317440732016825,0.14082559267983177,0.3620157724341871,1964.9997502097272,6360.228865142235
3.1558494983277594,941.4856103329046,941.6418597307883,0.37284226988122754,0.35374821568801607,0.14025178431198393,0.36234520888728033,1963.4156008059376,6365.944498753519
3.162816053511706,942.1959545964252,942.3430122137979,0.3753765563766377,0.35432634773501387,0.1396736522649861,0.36268398536595275,1961.8074874123215,6371.655135450963
3.1697826086956526,942.9202612850421,943.0573966120457,0.37794930717524633,0.35490883551936697,0.13909116448063302,0.36303232254789347,1960.1749667698557,6377.360919835389
3.1767491638795993,943.6589982640021,943.7855765591672,0.3805612163406023,0.3554957039322312,0.13850429606776887,0.3633904466551443,1958.5175984654732,6383.062000379119
3.183715719063546,944.4126083819298,944.528058054675,0.38321297858717984,0.35608697296830927,0.13791302703169073,0.36375858904170555,1956.8349416730664,6388.758529090179
3.190682274247492,945.1815200219592,945.2853097690129,0.38590529245167315,0.3566826591732327,0.13731734082676728,0.36413698589353394,1955.1265531411655,6394.450661301921
3.1976488294314382,945.9661544274162,946.0577773503976,0.38863886218630306,0.3572827765512699,0.13671722344873014,0.3645258780058348,1953.3919859915543,6400.138555549858
3.204615384615385,946.7669307487129,946.845893415012,0.39141439882416035,0.3578873371221281,0.13611266287787188,0.3649255106117032,1951.6307890432636,6405.822373508579
3.2115819397993315,947.5842694940712,947.6500844657461,0.3942326207079053,0.35849635125125073,0.1355036487487493,0.3653361332431111,1949.8425064770895,6411.502279969752
3.218548494983278,948.4185948701103,948.4707756465451,0.39709425366802903,0.35910982783482054,0.13489017216517946,0.36575799961039873,1948.0266777224783,6417.178442847978
3.2255150501672247,949.2703363544709,949.308393983966,0.4000000309680339,0.3597277743920033,0.13427222560799668,0.36619136749019804,1946.1828374923123,6422.851033205352
3.232481605351171,950.1399297389047,950.1633705783694,0.40295069308926296,0.3603501970981028,0.1336498029018972,0.3666364986144279,1944.3105159194445,6428.520225288412
3.2394481605351175,951.0278178073316,951.0361420693366,0.40594698739945945,0.3609771007800132,0.13302289921998678,0.3670936585549263,1942.4092387670114,6434.186196573176
3.246414715719064,951.9344507612902,951.9271516008467,0.40898966773092665,0.3616084888874158,0.13239151111258418,0.3675631165996316,1940.47852769611,6439.849127815281
3.2533812709030103,952.8602864688286,952.8368494414026,0.4120794938826932,0.36224436344808975,0.13175563655191028,0.368045145617154,1938.5179005816933,6445.509203103175
3.260347826086957,953.8057905877207,953.765693364858,0.41521723105392794,0.36288472501248326,0.13111527498751677,0.36854002190721297,1936.5268718720947,6451.166609912949
3.2673143812709036,954.7714365966001,954.7141488632692,0.4184036492114147,0.3635295725906664,0.1304704274093336,0.36904802503483647,1934.504952990391,6456.821539163754
3.2742809364548497,955.757705755794,955.6826892393193,0.4216395223911802,0.3641789035835242,0.12982109641647577,0.36956943764649536,1932.4516527775509,6462.4741852731
3.2812474916387964,956.765087011643,956.671795609565,0.42492562793269106,0.36483271370926995,0.1291672862907301,0.37010454526652165,1930.3664779783676,6468.124746211417
