z,T,t,fs,x,y,w,rhob,p
0.0,556.2445579809698,298.0,0.0,0.22647899873863425,0.26752100126136574,0.35471955247326525,2200.0,2040.0
0.002610275689223058,579.9377821143636,352.5104281951865,6.598111913607478e-07,0.2264792374592792,0.26752076254072077,0.35471955247326525,2199.9995813215214,2045.44478609417
0.005220551378446116,600.6839155917637,399.7988919990395,2.9423424374344346e-06,0.22648006328239093,0.2675199367176091,0.35471955247326525,2199.998132957623,2051.2253357025083
0.007830827067669174,618.9171698392877,441.03574628475684,8.225054239369647e-06,0.22648197457517438,0.2675180254248256,0.35471955247326525,2199.994780850583,2057.3014906354842
0.010441102756892232,634.9925286024493,477.15070926367065,1.7843663648788933e-05,0.22648545460199396,0.267514545398006,0.35471955247326525,2199.9886774306865,2063.637437931923
0.01566165413533835,661.795750748038,536.8816086149222,5.404965743405839e-05,0.2264985539830001,0.2675014460169999,0.35471955247326525,2199.965703175944,2076.964643759931
0.020882205513784464,682.9204173498172,583.5411033661788,0.00011632943613121359,0.22652108689716263,0.2674789131028374,0.35471955247326525,2199.9261839872274,2090.9915427496535
0.02610275689223058,699.6811375798511,620.3012610546056,0.00020545667753004963,0.22655333326222674,0.26744666673777323,0.35471955247326525,2199.869628932821,2105.5476226964265
0.0313233082706767,713.0488608999196,649.4494935308913,0.0003199417864522192,0.22659475414049884,0.26740524585950115,0.35471955247326525,2199.7969832247054,2120.497895605891
0.03654385964912281,723.7550031356593,672.6773679332315,0.0004573033681874068,0.2266444517597777,0.2673555482402223,0.35471955247326525,2199.7098214141693,2135.735494053527
0.04176441102756893,732.35901869389,691.2602036176474,0.0006147894667962713,0.22670143045841756,0.26729856954158243,0.35471955247326525,2199.6098897351976,2151.1758277641666
0.046984962406015046,739.2939616075514,706.1740045786493,0.0007897384579723152,0.22676472725688815,0.2672352727431119,0.35471955247326525,2199.4988771024828,2166.7519761537005
0.05220551378446116,744.8981973637696,718.17451005294,0.0009797378776382963,0.2268334693221912,0.26716653067780877,0.35471955247326525,2199.3783143278724,2182.411051299491
0.057426065162907276,749.4380678559696,727.8523264521915,0.0011826776140911467,0.22690689321285545,0.26709310678714454,0.35471955247326525,2199.2495403676758,2198.111321715651
0.0626466165413534,753.1244526076439,735.6723891160826,0.0013967508444008992,0.22698434521772715,0.26701565478227285,0.35471955247326525,2199.1137017284773,2213.819933401383
0.0678671679197995,756.1250953436999,742.0028273588392,0.0016204310913222652,0.2270652730551274,0.26693472694487264,0.35471955247326525,2198.9717670255095,2229.511100890166
0.07308771929824562,758.5739207277225,747.136464704482,0.0018524400995512935,0.22714921425043533,0.26685078574956467,0.35471955247326525,2198.8245473665447,2245.1646691031337
0.07830827067669174,760.5781665938197,751.3070775353282,0.0020917139190929873,0.2272357838650013,0.2667642161349987,0.35471955247326525,2198.672717873453,2260.764968467497
0.08352882205513786,762.2239018269878,754.7018457363326,0.002337370718178318,0.22732466285081374,0.2666753371491863,0.3547195524732653,2198.516838106285,2276.2999024895257
0.08874937343358397,763.5803326265675,757.4709872360803,0.0025886818254133937,0.22741558757350658,0.26658441242649344,0.3547195524732653,2198.3573704382684,2291.760219937028
0.09396992481203009,764.703187331029,759.735277927308,0.0028450464608817624,0.22750834067003572,0.26649165932996427,0.3547195524732653,2198.1946960900077,2307.138933875824
0.0991904761904762,765.6373926006236,761.591962858367,0.003105970099943385,0.2276027432206699,0.26639725677933007,0.3547195524732653,2198.0291288585818,2322.4308576885646
0.10441102756892232,766.4191994528909,763.1194299317724,0.003371046176025775,0.22769864812903418,0.2663013518709658,0.3547195524732653,2197.860926727904,2337.6322343882275
0.10963157894736844,767.0778788177821,764.380922750214,0.003639940737825492,0.22779593457106312,0.2662040654289369,0.3547195524732653,2197.6903016043893,2352.740440405928
0.11485213032581455,767.6370780351898,765.4275015526636,0.003912379660789428,0.2278945033680963,0.2661054966319037,0.35471955247326536,2197.517427431815,2367.75374887534
0.12007268170426066,768.1159088515598,766.3004119074452,0.00418813803402075,0.2279942731470454,0.26600572685295465,0.35471955247326536,2197.342446925784,2382.6711404776343
0.1252932330827068,768.5298218408368,767.0329844073727,0.004467031381144376,0.2280951771640906,0.26590482283590944,0.35471955247326536,2197.165477144462,2397.4921523238177
0.13051378446115292,768.8913103196204,767.6521613175255,0.004748908416198078,0.22819716068375162,0.2658028393162484,0.35471955247326536,2196.986614085276,2412.2167572692765
0.135734335839599,769.2104777370109,768.1797254197357,0.005033645077661625,0.22830017882039072,0.2656998211796093,0.35471955247326536,2196.8059364705778,2426.8452675821927
0.1409548872180451,769.4954954851008,768.6332904194389,0.0053211396226054124,0.22840419476326854,0.26559580523673143,0.3547195524732654,2196.623508860616,2441.3782581046985
0.14617543859649124,769.7529725877494,769.0270999902655,0.005611308597535093,0.22850917831878992,0.2654908216812101,0.3547195524732654,2196.43938421021,2455.816505017076
0.15139598997493736,769.9882544138525,769.372672942188,0.00590408353258321,0.22861510471445762,0.2653848952855424,0.3547195524732654,2196.2536059664244,2470.1609370913116
0.1566165413533835,770.2056641547993,769.67932446553,0.006199408231439502,0.22872195361836517,0.2652780463816348,0.3547195524732654,2196.0662097882273,2484.412596940712
0.1618370927318296,770.4086981012339,769.954587450747,0.0064972365512068215,0.22882970833594554,0.2651702916640545,0.3547195524732654,2195.8772249552644,2498.572610268583
0.1670576441102757,770.6001835983933,770.2045531581557,0.0067975305846824565,0.22893835515231784,0.2650616448476822,0.3547195524732655,2195.6866755212795,2512.642161516213
0.1722781954887218,770.7824068351462,770.4341467449509,0.007100259172864185,0.22904788279410995,0.26495211720589,0.3547195524732655,2195.4945812579963,2526.622474628467
0.17749874686716793,770.957216239283,770.6473501445103,0.007405396688207817,0.22915828198923927,0.26484171801076073,0.3547195524732655,2195.3009584271886,2540.514797910096
0.18271929824561406,771.1261061404822,770.8473823775465,0.007712922039715773,0.22926954510695227,0.26473045489304775,0.3547195524732655,2195.1058204119986,2554.3203921500103
0.18793984962406018,771.2902844678549,771.0368454336563,0.008022817859663408,0.22938166586358108,0.2646183341364189,0.35471955247326553,2194.9091782329924,2568.040521354339
0.1931604010025063,771.450727527791,771.2178422992826,0.008335069838972194,0.2294946390820803,0.2645053609179197,0.35471955247326553,2194.7110409698935,2581.6764455602633
0.1983809523809524,771.6082243257615,771.3920724485231,0.00864966618417313,0.22960846049555575,0.2643915395044443,0.35471955247326553,2194.511416106163,2595.229415307692
0.2036015037593985,771.7634124255184,771.5609090966732,0.008966597173786402,0.229723126586762,0.26427687341323797,0.3547195524732656,2194.3103098104966,2608.7006674301256
0.20882205513784463,771.9168069590213,771.725461695301,0.009285854795956039,0.22983863445699793,0.26416136554300207,0.3547195524732656,2194.1077271667605,2622.0914218936114
0.21404260651629076,772.0688240929841,771.8866264839662,0.009607432452473218,0.22995498171902204,0.264045018280978,0.3547195524732656,2193.9036723618005,2635.402879466837
0.21926315789473688,772.2198000091726,772.0451273769575,0.009931324717024775,0.23007216640958633,0.2639278335904137,0.3547195524732656,2193.6981488388456,2648.6362200488343
0.224483709273183,772.3700062542489,772.2015490291849,0.010257527137719496,0.23019018691799012,0.2638098130820099,0.35471955247326564,2193.491159422811,2661.7926015155454
0.2297042606516291,772.5196621519683,772.3563635739489,0.010586036075760275,0.23030904192771137,0.2636909580722886,0.35471955247326564,2193.28270642267,2674.8731589744184
0.2349248120300752,772.6689448385662,772.5099522408535,0.01091684857361688,0.23042873036871137,0.2635712696312887,0.35471955247326564,2193.072791715101,2687.8790043385134
0.24014536340852133,772.8179973753271,772.6626228318596,0.011249962247270788,0.2305492513784487,0.2634507486215513,0.3547195524732657,2192.8614168128674,2700.8112261495426
0.24536591478696745,772.9669353057963,772.8146238470397,0.011585375198098914,0.23067060426999883,0.26332939573000114,0.3547195524732657,2192.6485829207263,2713.6708895935762
0.2505864661654136,773.1158519550407,772.966155900654,0.011923085940777069,0.2307927885059693,0.2632072114940307,0.3547195524732657,2192.4342909811794,2726.4590366646557
0.2558070175438597,773.2648227116362,773.1173809459598,0.012263093344249222,0.2309158036771424,0.2630841963228576,0.3547195524732657,2192.2185417119304,2739.1766864407296
0.2610275689223058,773.4139084871256,773.2684297282299,0.012605396583352444,0.231039649484973,0.26296035051502703,0.35471955247326575,2192.0013356365807,2751.8248354436982
0.2662481203007519,773.5631585105107,773.4194078053545,0.01294999509913141,0.2311643257272302,0.26283567427276977,0.35471955247326575,2191.782673109811,2764.4044580612267
0.271468671679198,773.712612585236,773.5704004105711,0.013296888566238996,0.23128983228620303,0.26271016771379696,0.35471955247326575,2191.5625543380684,2776.9165070126855
0.27668922305764415,773.8623029117613,773.7214763793805,0.013646076866115676,0.2314161691189964,0.26258383088100357,0.3547195524732658,2191.340979396584,2789.36191384535
0.2819097744360903,774.0122555590963,773.8726913202415,0.013997560064881866,0.23154333624953283,0.26245666375046717,0.3547195524732658,2191.117948243401,2801.7415894499636
0.28713032581453635,774.1624916527154,774.0240901742582,0.014351338395074641,0.23167133376194451,0.26232866623805545,0.3547195524732658,2190.893460730965,2814.0564245871847
0.2923508771929825,774.31302833336,774.1757092812742,0.014707412240520934,0.23180016179510066,0.26219983820489934,0.35471955247326586,2190.667516615722,2826.3072904183246
0.2975714285714286,774.4638795307869,774.3275780472823,0.015065782123770508,0.23192982053806047,0.26207017946193956,0.35471955247326586,2190.4401155660908,2838.495039035305
0.3027919799498747,774.6150565880766,774.4797202898607,0.015426448695618879,0.23206031022628273,0.26193968977371723,0.35471955247326586,2190.2112571691146,2850.620503985969
0.30801253132832085,774.7665687652767,774.6321553236329,0.015789412726337475,0.23219163113845276,0.26180836886154724,0.3547195524732659,2189.980940936022,2862.684500791829
0.313233082706767,774.9184236456342,774.7848988358376,0.01615467509829934,0.23232378359381442,0.2616762164061856,0.3547195524732659,2189.749166306911,2874.687827456092
0.3184536340852131,775.0706274632008,774.9379635924805,0.016522236799746483,0.23245676794991504,0.26154323205008495,0.354719552473266,2189.515932654698,2886.631264960405
0.32367418546365917,775.2231853669826,775.0913600077505,0.01689209891949218,0.23259058460068893,0.26140941539931106,0.354719552473266,2189.2812392884857,2898.5155777492178
0.3288947368421053,775.3761016338875,775.2450966031021,0.017264262642389817,0.23272523397481767,0.26127476602518235,0.354719552473266,2189.0450854564333,2910.3415142010426
0.3341152882205514,775.5293798403649,775.3991803773192,0.017638729245431077,0.23286071653431878,0.2611392834656812,0.35471955247326603,2188.807470348235,2922.1098070861676
0.33933583959899755,775.6830230007249,775.5536171047713,0.018015500094361876,0.23299703277332107,0.26100296722667893,0.35471955247326603,2188.568393097266,2933.8211740106067
0.34455639097744367,775.8370336785838,775.708411575753,0.018394576640724927,0.23313418321699478,0.26086581678300524,0.35471955247326603,2188.327852782461,2945.4763178462404
0.34977694235588974,775.9914140766416,775.86356779012,0.01877596041925482,0.23327216842060916,0.26072783157939083,0.3547195524732661,2188.0858484299647,2957.075927147231
0.35499749373433587,776.1461661089874,776.0190891132703,0.01915965304556512,0.23341098896869547,0.2605890110313045,0.3547195524732661,2187.842379014601,2968.6206765528955
0.360218045112782,776.3012914593237,776.1749784017694,0.0195456562140782,0.23355064547429827,0.2604493545257017,0.35471955247326614,2187.5974434611867,2980.1112271772904
0.3654385964912281,776.4567916278404,776.3312381045089,0.019933971696157547,0.23369113857829935,0.2603088614217006,0.35471955247326614,2187.3510406457153,2991.5482269858185
0.37065914786967424,776.6126679689426,776.4878703441495,0.020324601338409708,0.2338324689488037,0.2601675310511963,0.3547195524732662,2187.103169396436,3002.9323111592043
0.37587969924812037,776.7689217216099,776.6448769826768,0.02071754706112899,0.23397463728057652,0.26002536271942345,0.3547195524732662,2186.8538284948395,3014.264102445211
0.3811002506265665,776.9255540338214,776.8022596741599,0.02111281085686297,0.23411764429452447,0.2598823557054755,0.3547195524732662,2186.6030166765695,3025.5442114984785
0.38632080200501256,777.0825659821993,776.9600199072024,0.021510394789080785,0.2342614907372136,0.25973850926278635,0.35471955247326625,2186.350732632266,3036.7732372088885
0.3915413533834587,777.2399585878035,777.1181590390913,0.021910300990929516,0.23440617738041972,0.2595938226195803,0.35471955247326625,2186.0969750083555,3047.9517670188447
0.3967619047619048,777.3977328288278,777.2766783232639,0.02231253166406639,0.23455170502070552,0.2594482949792945,0.3547195524732663,2185.841742407793,3059.080377229864
0.40198245614035094,777.5558896508018,777.4355789313917,0.022717089077556953,0.23469807447902222,0.25930192552097775,0.3547195524732663,2185.5850333907583,3070.1596332988765
0.40720300751879707,777.7144299747853,777.5948619711356,0.023123975566830914,0.23484528660033166,0.25915471339966833,0.35471955247326636,2185.3268464753214,3081.1900901246017
0.41242355889724314,777.8733547039473,777.7545285004156,0.023533193532688738,0.23499334225324697,0.259006657746753,0.35471955247326636,2185.067180138072,3092.1722923243924
0.41764411027568926,778.0326647288467,777.9145795388749,0.02394474544035352,0.23514224232968942,0.2588577576703106,0.3547195524732664,2184.8060328147194,3103.106774501888
0.4228646616541354,778.1923609316677,778.0750160770903,0.024358633818563166,0.23529198774456003,0.25870801225544,0.3547195524732664,2184.5434029006724,3113.9940615058417
0.4280852130325815,778.3524441896154,778.2358390839672,0.024774861258699134,0.23544257943542435,0.25855742056457565,0.3547195524732665,2184.279288751587,3124.8346686804543
0.43330576441102764,778.5129153776354,778.3970495126761,0.025193430413948257,0.23559401836220928,0.2584059816377907,0.3547195524732665,2184.0136886839036,3135.6291021075417
0.43852631578947376,778.6737753705922,778.5586483054166,0.02561434399849494,0.23574630550691061,0.2582536944930894,0.35471955247326653,2183.746600975355,3146.377858840846
0.4437468671679199,778.8350250450104,778.7206363972377,0.026037604786741258,0.23589944187331108,0.2581005581266889,0.35471955247326653,2183.478023865465,3157.0814271328
0.44896741854636596,778.9966652804666,778.8830147191023,0.026463215612552927,0.23605342848670735,0.25794657151329264,0.3547195524732666,2183.207955556023,3167.740286654025
0.4541879699248121,779.1586969606996,779.0457842003412,0.026891179368529444,0.2362082663936462,0.2577917336063538,0.3547195524732666,2182.9363942115524,3178.3549087058445
0.4594085213032582,779.3211209744961,779.2089457706198,0.02732149900529674,0.2363639566616683,0.25763604333833173,0.35471955247326664,2182.6633379597533,3188.925756426079
0.46462907268170434,779.4839382163944,779.3725003615112,0.02775417753082114,0.2365205003790602,0.2574794996209398,0.35471955247326664,2182.3887848919426,3199.4532849883744
0.46984962406015046,779.6471495872439,779.5364489077555,0.028189218009743368,0.23667789865461342,0.2573221013453866,0.3547195524732667,2182.1127330634745,3209.9379417953173
0.47507017543859653,779.8107559946476,779.7007923482648,0.028626623562731587,0.2368361526173902,0.25716384738260983,0.3547195524732667,2181.8351804941512,3220.380166665553
0.48029072681704266,779.974758353313,779.8655316269267,0.02906639736585253,0.23699526341649607,0.2570047365835039,0.35471955247326675,2181.556125168622,3230.78039201515
0.4855112781954888,780.1391575853268,780.0306676932446,0.02950854264995985,0.23715523222085855,0.25684476777914145,0.35471955247326675,2181.2755650367726,3241.1390430334122
0.4907318295739349,780.3039546203721,780.1962015028475,0.029953062700099,0.2373160602190119,0.25668393978098814,0.3547195524732668,2180.9934980141,3251.45653785335
0.49595238095238103,780.4691503958963,780.3621340178964,0.03039996085492787,0.23747774861888732,0.2565222513811127,0.35471955247326686,2180.709921982083,3261.7332877170024
0.5011729323308272,780.6347458572426,780.5284662074051,0.030849240506152596,0.23764029864760902,0.25635970135239095,0.35471955247326686,2180.4248347885386,3271.969697135807
0.5063934837092733,780.8007419577501,780.6951990474971,0.03130090509797787,0.23780371155129532,0.2561962884487047,0.3547195524732669,2180.138234247972,3282.166164046184
0.5116140350877194,780.9671396588319,780.8623335216066,0.03175495812657133,0.23796798859486462,0.2560320114051354,0.3547195524732669,2179.8501181419138,3292.3230799605235
0.5168345864661654,781.1339399300323,781.0298706206377,0.032211403139541316,0.23813313106184683,0.25586686893815314,0.354719552473267,2179.560484219255,3302.440830113725
0.5220551378446115,781.3011437490701,781.1978113430902,0.03267024373542783,0.23829914025419893,0.2557008597458011,0.35471955247326703,2179.2693301965683,3312.5197936054637
0.5272756892230577,781.4687521018703,781.3661566951571,0.03313148356320576,0.2384660174921253,0.25553398250787474,0.35471955247326703,2178.976653758422,3322.5603435383227
0.5324962406015038,781.6367659825867,781.5349076908024,0.033595126321800464,0.2386337641139025,0.2553662358860975,0.3547195524732671,2178.6824525576894,3332.5628471519417
0.5377167919799499,781.8051863936157,781.7040653518194,0.034061175759614926,0.23880238147570818,0.25519761852429185,0.3547195524732671,2178.386724215849,3342.527665953324
0.542937343358396,781.974014345608,781.8736307078777,0.03452963567406824,0.23897187095145403,0.255028129048546,0.35471955247326714,2178.089466323275,3352.455155843432
0.5481578947368422,782.1432508574725,782.0436047965587,0.035000509911145075,0.2391422339326229,0.2548577660673771,0.3547195524732672,2177.790676439525,3362.345667240202
0.5533784461152883,782.3128969563799,782.2139886633826,0.035473802364955676,0.23931347182810953,0.25468652817189047,0.3547195524732672,2177.49035209362,3372.1995451981
0.5585989974937344,782.4829536777627,782.3847833618289,0.03594951697730611,0.23948558606406503,0.25451441393593494,0.35471955247326725,2177.1884907843146,3382.017129524338
0.5638195488721806,782.6534220653136,782.5559899533527,0.036427657737278456,0.23965857808374513,0.25434142191625486,0.3547195524732673,2176.885089980365,3391.798754891862
0.5690401002506267,782.8243031709843,782.7276095073958,0.03690822868082053,0.23983244934736156,0.25416755065263846,0.3547195524732673,2176.58014712079,3401.5447509492255
0.5742606516290728,782.9955980549811,782.8996431013968,0.037391233890345016,0.24000720133193715,0.25399279866806285,0.35471955247326736,2176.2736596151235,3411.255442427448
0.5794812030075189,783.1673077857637,783.0720918207967,0.03787667749433743,0.24018283553116393,0.25381716446883607,0.3547195524732674,2175.9656248436645,3420.931149243963
0.584701754385965,783.3394334400409,783.2449567590448,0.03836456366697299,0.24035935345526455,0.25364064654473545,0.3547195524732674,2175.65604015772,3430.5721866037456
0.5899223057644111,783.5119761027695,783.4182390176031,0.03885489662774179,0.24053675663085664,0.25346324336914333,0.3547195524732675,2175.3449028798423,3440.178865097726
0.5951428571428572,783.6849368671507,783.5919397059497,0.03934768064108224,0.2407150466008202,0.2532849533991798,0.35471955247326753,2175.032210304063,3449.7514907985587
0.6003634085213033,783.8583168346302,783.7660599415815,0.039842920016022375,0.24089422492416782,0.2531057750758322,0.3547195524732676,2174.7179596961187,3459.2903653538547
0.6055839598997494,784.0321171148975,783.9406008500188,0.04034061910582894,0.2410742931759177,0.25292570682408233,0.3547195524732676,2174.4021482936755,3468.795786076939
0.6108045112781956,784.2063388258861,784.1155635648068,0.04084078230766382,0.24125525294696937,0.2527447470530306,0.35471955247326764,2174.0847733065457,3478.268046035229
0.6160250626566417,784.3809830937761,784.2909492275212,0.041343414062247764,0.24143710584398206,0.25256289415601796,0.3547195524732677,2173.765831916901,3487.7074341363013
0.6212456140350878,784.5560510529966,784.4667589877703,0.041848518853531094,0.2416198534892555,0.2523801465107445,0.35471955247326775,2173.445321279484,3497.11423521172
0.626466165413534,784.7315438462307,784.642994003201,0.04235610120837115,0.24180349752061317,0.2521965024793868,0.3547195524732678,2173.123238521808,3506.4887300987043
0.6316867167919801,784.9074626244212,784.8196554395037,0.04286616569621634,0.2419880395912882,0.25201196040871177,0.3547195524732678,2172.7995807443635,3515.8311957196975
0.6369072681704262,785.0838085467788,784.9967444704182,0.04337871692879659,0.24217348136981112,0.25182651863018884,0.35471955247326786,2172.4743450208102,3525.141905159901
0.6421278195488722,785.2605827807904,785.174262277741,0.0438937595598199,0.24235982453990026,0.25164017546009976,0.3547195524732679,2172.14752839817,3534.4211277428453
0.6473483709273183,785.4377865022326,785.3522100513331,0.04441129828467493,0.24254707080035398,0.251452929199646,0.354719552473268,2171.819127897019,3543.6691291040534
0.6525689223057645,785.6154208951834,785.530588989129,0.044931337840139356,0.24273522186494534,0.25126477813505466,0.35471955247326803,2171.4891405116673,3552.88617126285
0.6577894736842106,785.7934871520392,785.7094002971465,0.045453883004093865,0.2429242794623185,0.2510757205376815,0.35471955247326803,2171.157563210345,3562.0725126923844
0.6630100250626567,785.9719864735335,785.8886451894992,0.04597893859524157,0.24311424533588724,0.2508857546641128,0.3547195524732681,2170.8243929353794,3571.228408387914
0.6682305764411028,786.150920068758,786.0683248884078,0.046506509472832726,0.2433051212437353,0.25069487875626467,0.35471955247326814,2170.4896266033675,3580.354109933403
0.673451127819549,786.3302891551873,786.2484406242147,0.047036600536394545,0.24349690895851875,0.2505030910414812,0.3547195524732682,2170.153261105349,3589.449865566485
0.6786716791979951,786.5100949587074,786.4289936354004,0.04756921672546595,0.24368961026736993,0.2503103897326301,0.35471955247326825,2169.815293306975,3598.515920241846
0.6838922305764412,786.6903387136475,786.6099851686005,0.04810436301933713,0.24388322697180326,0.25011677302819674,0.3547195524732683,2169.4757200486724,3607.55251569306
0.6891127819548873,786.8710216628166,786.7914164786248,0.04864204443679378,0.24407776088762262,0.24992223911237738,0.35471955247326836,2169.134538145807,3616.559890492942
0.6943333333333335,787.0521450575444,786.9732888284793,0.049182266035865764,0.2442732138448306,0.24972678615516938,0.3547195524732684,2168.7917443888414,3625.538280112446
0.6995538847117795,787.2337101577289,787.1556034893894,0.049725032913580214,0.244469587687539,0.249530412312461,0.3547195524732685,2168.4473355434943,3634.4879169781607
0.7047744360902256,787.4157182318884,787.3383617408264,0.05027035020571887,0.24466688427388103,0.24933311572611896,0.35471955247326853,2168.101308350891,3643.4090305284367
0.7099949874686717,787.5981705572219,787.5215648705367,0.050818223086579385,0.24486510547592513,0.24913489452407486,0.35471955247326853,2167.753659527719,3652.301847268192
0.7152155388471179,787.7810684196768,787.7052141745735,0.05136865676874071,0.24506425317958994,0.24893574682041006,0.3547195524732686,2167.4043857663723,3661.1665908224277
0.720436090225564,787.9644131140249,787.8893109573324,0.05192165650283233,0.24526432928456077,0.24873567071543926,0.35471955247326864,2167.053483735103,3670.003481988497
0.7256566416040101,788.1482059439494,788.0738565315911,0.052477227577307134,0.24546533570420753,0.24853466429579246,0.3547195524732687,2166.7009500781596,3678.8127387871546
0.7308771929824562,788.3324482221426,788.2588522185525,0.053035375318217975,0.2456672743655039,0.24833272563449613,0.35471955247326875,2166.3467814159344,3687.5945765124343
0.7360977443609024,788.5171412704167,788.444299347894,0.053596105088997655,0.2458701472089476,0.2481298527910524,0.3547195524732688,2165.9909743450985,3696.3492077803726
0.7413182957393485,788.7022864198294,788.6301992578207,0.054159422290242384,0.24607395618848218,0.2479260438115178,0.35471955247326886,2165.633525438743,3705.076842576624
0.7465388471177946,788.8878850108259,788.8165532951253,0.05472533235949847,0.24627870327141976,0.24772129672858023,0.3547195524732689,2165.2744312465115,3713.777688302993
0.7517593984962407,789.0739383934006,789.0033628152563,0.05529384077105216,0.24648439043836506,0.24751560956163493,0.35471955247326903,2164.9136882947346,3722.451949822911
0.7569799498746868,789.2604479272796,789.190629182391,0.05586495303572277,0.2466910196831405,0.24730898031685952,0.3547195524732691,2164.551293086561,3731.0998295058967
0.7622005012531329,789.4474149821298,789.37835376952,0.05643867470065857,0.24689859301271233,0.2471014069872877,0.35471955247326914,2164.1872421020876,3739.721527271017
0.767421052631579,789.6348409377943,789.5665379585406,0.05701501134913582,0.24710711244711797,0.24689288755288202,0.3547195524732692,2163.821531798487,3748.3172406293847
0.7726416040100251,789.8227271845625,789.7551831403615,0.05759396860036057,0.24731658001939436,0.24668341998060567,0.35471955247326925,2163.4541586101313,3756.8871647257165
0.7778621553884713,790.0110751234764,789.9442907150205,0.05817555210927324,0.2475269977755071,0.2464730022244929,0.3547195524732693,2163.0851189487184,3765.4314923789775
0.7830827067669174,790.1998861666801,790.1338620918169,0.058759767566356015,0.24773836777428093,0.2462616322257191,0.35471955247326936,2162.7144092033946,3773.9504141221364
0.7883032581453635,790.3891617378181,790.3238986894605,0.059346620697442856,0.24795069208733084,0.24604930791266916,0.3547195524732694,2162.342025740871,3782.4441182410596
0.7935238095238096,790.5789032724911,790.51440193624,0.05993611726353215,0.24816397279899438,0.2458360272010056,0.3547195524732695,2161.9679649055493,3790.9127908125656
0.7987443609022558,790.7691122187751,790.7053732702121,0.060528263060602015,0.24837821200626486,0.24562178799373513,0.3547195524732696,2161.592223019631,3799.356615741662
0.8039649122807019,790.9597900378176,790.8968141394165,0.06112306391942811,0.24859341181872535,0.24540658818127464,0.35471955247326964,2161.214796383241,3807.775774797991
0.809185463659148,791.150938204516,791.0887260021186,0.061720525705404095,0.2488095743584838,0.24519042564151622,0.3547195524732697,2160.8356812745337,3816.170447651501
0.8144060150375941,791.3425582082983,791.281110327084,0.062320654318364574,0.24902670176010885,0.24497329823989114,0.35471955247326975,2160.4548739498127,3824.540811907375
0.8196265664160403,791.5346515540159,791.4739685938914,0.06292345569241072,0.249244796170567,0.24475520382943303,0.3547195524732698,2160.0723706436356,3832.8870431402247
0.8248471177944863,791.727219762967,791.6673022932861,0.06352893579573837,0.24946385974916005,0.24453614025083995,0.3547195524732699,2159.688167568927,3841.209314927583
0.8300676691729324,791.9202643740725,791.8611129275833,0.06413710063046905,0.24968389466746432,0.2443161053325357,0.35471955247327,2159.302260917083,3849.507798882706
0.8352882205513785,792.1137869452252,792.0554020111264,0.0647479562324834,0.24990490310927016,0.24409509689072983,0.35471955247327003,2158.9146468580793,3857.782664686716
0.8405087719298246,792.3077890548411,792.2501710708086,0.06536150867125773,0.2501268872705229,0.24387311272947712,0.3547195524732701,2158.5253215405723,3866.0340801200896
0.8457293233082708,792.5022723036421,792.4454216466684,0.0659777640497034,0.2503498493592647,0.24365015064073534,0.3547195524732702,2158.1342810920037,3874.2622110935313
0.8509498746867169,792.6972383167085,792.6411552925687,0.06659672850400941,0.2505737915955776,0.2434262084044224,0.35471955247327025,2157.7415216186987,3882.4672216782324
0.856170426065163,792.8926887458408,792.8373735769716,0.06721840820348828,0.2507987162115279,0.24320128378847214,0.3547195524732703,2157.347039205964,3890.6492741355537
0.8613909774436092,793.0886252722812,793.0340780838256,0.06784280935042548,0.2510246254511113,0.24297537454888865,0.3547195524732704,2156.950829918183,3898.808528946138
0.8666115288220553,793.2850496098504,793.2312704135785,0.06846993817993284,0.2512515215702005,0.2427484784297995,0.35471955247327047,2156.5528897989107,3906.9451448384793
0.8718320802005014,793.4819635085653,793.4289521843381,0.06909980095980599,0.25147940683649295,0.24252059316350708,0.3547195524732705,2156.153214870962,3915.059278816973
0.8770526315789475,793.6793687588146,793.6271250332009,0.06973240399038666,0.25170828352946134,0.24229171647053863,0.35471955247327064,2155.7518011365,3923.151086189462
0.8822731829573935,793.8772671961787,793.8257906177763,0.0703677536044299,0.2519381539403057,0.24206184605969425,0.3547195524732707,2155.3486445771205,3931.220720594305
0.8874937343358397,794.0756607069989,794.0249506179346,0.07100585616697719,0.2521690203719073,0.2418309796280927,0.3547195524732708,2154.9437411539316,3939.26833402699
0.8927142857142858,794.2745512348155,794.2246067378127,0.07164671807523579,0.25240088513878495,0.24159911486121508,0.35471955247327086,2154.537086807631,3947.2940768663175
0.8979348370927319,794.4739407878117,794.4247607081197,0.07229034575846534,0.25263375056705406,0.24136624943294593,0.3547195524732709,2154.1286774585783,3955.29809790018
0.903155388471178,794.6738314474285,794.6254142887867,0.07293674567787273,0.2528676189943887,0.24113238100561132,0.354719552473271,2153.7185090068606,3963.2805443509633
0.9083759398496242,794.8742253783371,794.8265692720138,0.073585924326516,0.25310249276998664,0.24089750723001338,0.3547195524732711,2153.3065773323547,3971.2415619006038
0.9135964912280703,795.0751248399898,795.0282274857792,0.07423788822921898,0.2533383742545386,0.2406616257454614,0.3547195524732712,2152.892878294779,3979.181294715329
0.9188170426065164,795.2765322000046,795.2303907978802,0.07489264394249785,0.2535752658202017,0.24042473417979834,0.35471955247327125,2152.4774077337447,3987.0998854701224
0.9240375939849625,795.4784499496828,795.4330611205911,0.07555019805450161,0.25381316985057767,0.24018683014942235,0.35471955247327136,2152.060161468788,3994.9974753729484
0.9292581453634087,795.680880722007,795.6362404160368,0.0762105571849683,0.2540520887406974,0.23994791125930262,0.35471955247327147,2151.641135299401,4002.874204188779
0.9344786967418548,795.8838273125243,795.8399307023951,0.07687372798519972,0.2542920248970115,0.2397079751029885,0.3547195524732715,2151.2203250050484,4010.7302102634785
0.9396992481203009,796.0872927035884,796.0441340610614,0.077539717138057,0.25453298073738884,0.23946701926261116,0.35471955247327164,2150.7977263451685,4018.5656305475873
0.944919799498747,796.2912800925109,796.2488526449328,0.07820853135798071,0.2547749586911237,0.23922504130887629,0.3547195524732717,2150.37333505916,4026.3806006200816
0.9501403508771931,796.4957929242624,796.4540886879914,0.07888017739103907,0.25501796119895337,0.23898203880104663,0.3547195524732718,2149.9471468663546,4034.1752547121628
0.9553609022556392,796.7008349294758,796.6598445164037,0.07955466201500903,0.25526199071308736,0.23873800928691263,0.3547195524732719,2149.519157465962,4041.9497257311677
0.9605814536340853,796.9064101686173,796.8661225613845,0.08023199203949508,0.25550704969725047,0.23849295030274956,0.35471955247327197,2149.089362536996,4049.704145284679
0.9658020050125314,797.1125230833463,797.0729253741218,0.08091217430609222,0.2557531406267416,0.2382468593732584,0.3547195524732721,2148.6577577381713,4057.4386437049434
0.9710225563909776,797.3191785562422,797.2802556431103,0.08159521568860038,0.2560002659885116,0.2379997340114884,0.3547195524732722,2148.224338707768,4065.1533500737164
0.9762431077694237,797.5263819802715,797.488116214305,0.08228112309329837,0.2562484282812621,0.23775157171873787,0.3547195524732723,2147.7891010634553,4072.8483922476616
0.9814636591478698,797.7341393395953,797.6965101145814,0.08296990345928765,0.25649763001557013,0.2375023699844299,0.35471955247327236,2147.3520404020765,4080.5238968844633
0.9866842105263159,797.9424573035649,797.9054405790814,0.08366156375891755,0.2567478737140417,0.2372521262859583,0.35471955247327247,2146.913152299377,4088.1799894698293
0.9919047619047621,798.1513433360542,798.1149110831333,0.08435611099830555,0.2569991619115003,0.2370008380884997,0.3547195524732726,2146.4724323096752,4095.816794345589
0.9971253132832082,798.3608058226102,798.3249253795694,0.0850535522179692,0.2572514971552154,0.23674850284478463,0.3547195524732727,2146.0298759654606,4103.4344347391225
1.0023458646616543,798.5708542182839,798.5354875424295,0.08575389449358883,0.25750488200517835,0.23649511799482167,0.35471955247327275,2145.5854787769113,4111.033032794388
1.0075664160401003,798.7814992194329,798.7466020182361,0.08645714493692387,0.25775931903443405,0.23624068096556597,0.35471955247327286,2145.1392362313104,4118.612709604876
1.0127869674185466,798.9927529632741,798.95827368628,0.08716331069691043,0.2580148108294779,0.2359851891705221,0.35471955247327297,2144.691143792352,4126.173585248825
1.0180075187969928,799.2046292594882,799.1705079296524,0.08787239896097214,0.25827135999073025,0.23572864000926977,0.3547195524732731,2144.241196899308,4133.715778827136
1.0232280701754388,799.4171438587686,799.3833107191471,0.08858441695658356,0.2585289691331018,0.23547103086689822,0.3547195524732732,2143.789390966035,4141.23940850446
1.0284486215538848,799.6303147638231,799.5966887126152,0.08929937195313298,0.2587876408866678,0.23521235911333221,0.3547195524732733,2143.3357213797963,4148.744591553979
1.0336691729323308,799.8441625889915,799.8106493729525,0.09001727126414037,0.2590473778974704,0.23495262210252962,0.3547195524732734,2142.880183499849,4156.231444406534
1.0388897243107769,800.0587109752928,800.02520110862,0.09073812224989927,0.2593081828284744,0.23469181717152562,0.3547195524732735,2142.422772655771,4163.700082704782
1.044110275689223,800.2739870683395,800.2403534415151,0.0914619323206246,0.2595700583607063,0.2344299416392937,0.35471955247327364,2141.9634841454645,4171.150621363197
1.0493308270676693,800.4900220670892,800.4561172081457,0.092188708940207,0.2598330071946126,0.23416699280538741,0.35471955247327375,2141.5023132327697,4178.583174634793
1.0545513784461154,800.7068518517726,800.6725048014672,0.09291845963069621,0.2600970320516818,0.23390296794831825,0.35471955247327386,2141.039255144625,4185.997856185597
1.0597719298245614,800.9245176994248,800.8895304624856,0.0936511919776637,0.26036213567638455,0.23363786432361547,0.35471955247327397,2140.574305067659,4193.394779177955
1.0649924812030076,801.1430670951158,801.1072106328539,0.0943869136366277,0.2606283208384985,0.2333716791615015,0.3547195524732741,2140.107458144118,4200.774056363898
1.0702130325814538,801.3625546460106,801.3255643822657,0.09512563234076683,0.26089559033589893,0.2331044096641011,0.3547195524732742,2139.638709466969,4208.135800189843
1.0754335839598999,801.5830431035437,801.5446139274862,0.09586735591019904,0.26116394699791573,0.23283605300208424,0.35471955247327436,2139.1680540740113,4215.480122914018
1.0806541353383459,801.8046044959317,801.7643852633842,0.09661209226316538,0.2614333936893801,0.2325666063106199,0.35471955247327447,2138.695486940782,4222.807136737985
1.085874686716792,802.0273213685886,801.9849089302131,0.09735984942953325,0.2617039333155096,0.23229606668449038,0.3547195524732746,2138.2210029719854,4230.1169539536495
1.0910952380952383,802.2512881232759,802.2062209454618,0.09811063556712366,0.2619755688278158,0.23202443117218421,0.3547195524732747,2137.7445969911355,4237.409687106986
1.0963157894736844,802.4766124375427,802.4283639323985,0.09886445898147041,0.26224830323125276,0.23175169676874727,0.35471955247327486,2137.266263728015,4244.685449179543
1.1015363408521304,802.7034167336757,802.651388480269,0.0996213281497361,0.2625221395928702,0.23147786040712978,0.35471955247327497,2136.7859978035003,4251.944353788378
1.1067568922305766,802.9318396506189,802.8753547718298,0.10038125174963429,0.2627970810522775,0.2312029189477225,0.3547195524732751,2136.303793711211,4259.186515404509
1.1119774436090228,803.1620374529725,803.1003345108297,0.10114423869433266,0.26307313083427164,0.23092686916572835,0.35471955247327525,2135.819645795359,4266.412049589166
1.1171979949874689,803.3941852884881,803.32641317292,0.10191029817442078,0.26335029226402124,0.23064970773597876,0.35471955247327536,2135.3335482241228,4273.621073246023
1.1206783625730996,803.5501293327317,803.4777923204667,0.10242271614376372,0.26353568582771175,0.23046431417228821,0.35471955247327547,2135.0083970618043,4278.417974951684
1.1241587301587304,803.7070891413534,803.6297395329906,0.10293650681981194,0.2637215760386771,0.23027842396132292,0.3547195524732755,2134.682374858251,4283.20762684523
1.127639097744361,803.8651316150456,803.782293807875,0.10345167320085935,0.26390796398170413,0.23009203601829586,0.35471955247327563,2134.3554797109177,4287.990064901553
1.1311194653299919,804.0243276861192,803.9354987683397,0.10396821838037261,0.26409485077601375,0.22990514922398628,0.3547195524732757,2134.0277096568657,4292.765325538879
1.1345998329156226,804.1847522073492,804.0894030904809,0.10448614555791272,0.26428223757921165,0.22971776242078834,0.3547195524732758,2133.6990626658376,4297.533445653492
1.1380802005012534,804.346483759341,804.2440609216903,0.10500545805105974,0.2644701255916032,0.2295298744083968,0.3547195524732759,2133.369536632686,4302.294462652672
1.141560568086884,804.5096043662722,804.3995322737305,0.10552615930831645,0.26465851606086166,0.2293414839391384,0.354719552473276,2133.0391293691887,4307.048414485067
1.1450409356725149,804.674199111093,804.5558833700535,0.10604825292292729,0.264847410287028,0.229152589712972,0.3547195524732761,2132.7078385952773,4311.795339667605
1.1485213032581456,804.8403556432401,804.7131869234594,0.10657174264749973,0.2650368096278012,0.22896319037219884,0.3547195524732762,2132.3756619297624,4316.535277308004
1.1520016708437764,805.0081635746976,804.8715223172433,0.10709663240926076,0.26522671550405746,0.22877328449594253,0.3547195524732763,2132.0425968806494,4321.268267121875
1.155482038429407,805.1777137638329,805.0309756610195,0.10762292632571721,0.2654171294055169,0.22858287059448307,0.35471955247327636,2131.7086408352043,4325.994349443425
1.1589624060150376,805.3490974907767,805.1916396919138,0.10815062872042414,0.26560805289644795,0.22839194710355204,0.35471955247327647,2131.373791049946,4330.713565228788
1.1624427736006684,805.5224055330984,805.3536134932327,0.1086797441384986,0.2657994876212806,0.22820051237871947,0.3547195524732766,2131.038044640802,4335.425956051081
1.1659231411862991,805.6977271558834,805.5170020064546,0.10921027736145415,0.2659914353099732,0.22800856469002678,0.3547195524732767,2130.701398573699,4340.131564086385
1.16940350877193,805.8751490357738,805.6819153186576,0.10974223342088006,0.2661838977829622,0.2278161022170378,0.3547195524732768,2130.3638496558765,4344.830432090059
1.1728838763575606,806.0547541436943,805.8484677163315,0.11027561761045188,0.26637687695550705,0.22762312304449295,0.35471955247327686,2130.0253945282707,4349.522603362968
1.1763642439431914,806.2366206154259,806.0167765076127,0.11081043549574458,0.2665703748412408,0.22742962515875917,0.35471955247327697,2129.686029659286,4354.208121707487
1.1798446115288221,806.4208206425163,806.1869606277678,0.11134669292132948,0.2667643935547379,0.2272356064452621,0.3547195524732771,2129.3457513402914,4358.88703137343
1.183324979114453,806.6074194178277,806.3591390563173,0.11188439601467472,0.2669589353129251,0.22704106468707488,0.3547195524732772,2129.0045556831456,4363.559376994361
1.1868053467000836,806.7964741700645,806.5334290874468,0.1124235511864387,0.267154002435188,0.22684599756481202,0.3547195524732773,2128.662438620011,4368.225203515066
1.1902857142857144,806.9880333197472,806.7099445070585,0.11296416512684228,0.2673495973420581,0.2266504026579419,0.3547195524732774,2128.319395905656,4372.884556111255
1.1937660818713451,807.1821357853217,806.8887937387972,0.11350624479792833,0.26754572255241266,0.22645427744758734,0.3547195524732775,2127.975423122366,4377.537480102838
1.197246449456976,807.3788104626225,807.0700780266634,0.11404979742165613,0.267742380679167,0.22625761932083302,0.35471955247327763,2127.6305156874982,4382.184020862371
1.2007268170426066,807.5780758940763,807.2538897227521,0.11459483046392709,0.26793957442349503,0.22606042557650496,0.35471955247327774,2127.2846688636187,4386.824223720374
1.2042071846282374,807.7799401363425,807.4403107450462,0.11514135161478672,0.2681373065676664,0.22586269343233362,0.35471955247327785,2126.937877771063,4391.458133869389
1.2076875522138681,807.9844008270352,807.6294112623058,0.11568936876518565,0.2683355799666385,0.22566442003336154,0.35471955247327797,2126.5901374026853,4396.085796268597
1.211167919799499,808.1914454433662,807.8212486516287,0.11623888998080094,0.2685343975385849,0.22546560246141514,0.3547195524732781,2126.2414426404684,4400.707255550821
1.2146482873851296,808.4010517384509,808.015866760258,0.11678992347351214,0.26873376225457557,0.22526623774542448,0.3547195524732782,2125.891788273622,4405.322555933579
1.2181286549707604,808.6131883350774,808.213295487889,0.11734247757118643,0.2689336771276449,0.22506632287235512,0.3547195524732783,2125.541169017758,4409.931741135677
1.2216090225563911,808.8278154522249,808.4135506903554,0.11789656068645614,0.2691341452014955,0.22486585479850454,0.3547195524732784,2125.1895795347,4414.534854300636
1.225089390142022,809.0448857366755,808.61663439128,0.11845218128516546,0.269335169539082,0.22466483046091804,0.3547195524732785,2124.8370144525074,4419.131937927952
1.2285697577276526,809.2643451707271,808.8225352760124,0.1190093478551291,0.26953675321130804,0.22446324678869192,0.35471955247327863,2124.4834683852982,4423.723033812938
1.2320501253132834,809.4861340271357,809.031229432555,0.11956806887578364,0.26973889928604616,0.22426110071395383,0.35471955247327874,2124.1289359525063,4428.308182995616
1.2355304928989141,809.7101878438342,809.2426812975317,0.12012835278923342,0.26994161081766194,0.22405838918233809,0.35471955247327885,2123.7734117972545,4432.887425718878
1.239010860484545,809.9364383934006,809.4568447616115,0.12069020797309767,0.27014489083719,0.22385510916280998,0.354719552473279,2123.4168906035848,4437.460801395862
1.2424912280701756,810.1648146254093,809.673664387936,0.12125364271546628,0.2703487423432735,0.22365125765672653,0.35471955247327913,2123.059367112349,4442.028348586311
1.2459715956558064,810.3952435634094,809.8930766986302,0.12181866519216875,0.27055316829393916,0.22344683170606083,0.35471955247327924,2122.700836135632,4446.590104981488
1.2494519632414371,810.6276511420683,810.1150114879011,0.12238528344646214,0.2707581715992492,0.2232418284007508,0.35471955247327935,2122.3412925696434,4451.146107397069
1.252932330827068,810.8619629737819,810.3393931250118,0.12295350537115303,0.2709637551148324,0.2230362448851676,0.3547195524732795,2121.980731406059,4455.696391773342
1.2564126984126986,811.0981050375985,810.5661418160394,0.12352333869308517,0.27116992163627207,0.22283007836372792,0.35471955247327963,2121.6191477418647,4460.240993181981
1.2598930659983294,811.3360042865211,810.7951747993119,0.12409479095985489,0.2713766738942994,0.22262332610570054,0.35471955247327974,2121.256536787788,4464.779945838579
1.2633734335839601,811.5755891720479,811.0264074553988,0.12466786952855585,0.27158401455072173,0.22241598544927826,0.3547195524732799,2120.8928938754375,4469.313283120154
1.266853801169591,811.816790087145,811.2597543181786,0.12524258155630746,0.271791946194995,0.22220805380500494,0.35471955247328,2120.5282144633134,4473.841037586847
1.2703341687552216,812.0595397307247,811.4951299786366,0.12581893399228297,0.27200047134134037,0.2219995286586596,0.35471955247328013,2120.162494141868,4478.3632410070295
1.2738145363408524,812.3037733981257,811.732449877516,0.126396933570925,0.2722095924262888,0.2217904075737112,0.3547195524732803,2119.795728637809,4482.879924385116
1.2772949039264831,812.5494292031118,811.9716309866882,0.12697658680601498,0.2724193118065359,0.2215806881934641,0.3547195524732804,2119.4279138178636,4487.391117991415
1.2807752715121137,812.796448237559,812.2125923821238,0.12755789998524808,0.27262963175697885,0.22137036824302117,0.3547195524732806,2119.0590456922178,4491.896851393404
1.2842556390977444,813.0447746753483,812.4552557136718,0.1281408791649528,0.27284055446880606,0.2211594455311939,0.3547195524732807,2118.6891204178733,4496.397153487907
1.2877360066833752,813.2943558270674,812.6995455785295,0.12872553016458632,0.27305208204750575,0.2209479179524943,0.35471955247328085,2118.3181343021342,4500.892052533678
1.291216374269006,813.5451421520164,812.9453898064155,0.12931185856062796,0.27326421651065597,0.22073578348934406,0.354719552473281,2117.946083806486,4505.381576183989
1.2946967418546367,813.7970872337369,813.1927196650968,0.12989986967948275,0.2734769597853579,0.2205230402146421,0.35471955247328113,2117.5729655510963,4509.865751518876
1.2981771094402674,814.0501477249062,813.4414699951784,0.13048956858899638,0.27369031370516544,0.22030968629483458,0.3547195524732813,2117.1987763201996,4514.3446050767425
1.3016574770258982,814.304283266978,813.6915792830011,0.13108096008816617,0.2739042800063628,0.22009571999363722,0.35471955247328146,2116.823513068626,4518.818162885078
1.305137844611529,814.5594563894463,813.9429896801954,0.13167404869461238,0.27411886032343147,0.21988113967656853,0.3547195524732816,2116.447172929753,4523.28645049011
1.310358395989975,814.9440863590404,814.3224272571485,0.1325668728281942,0.2744418853884694,0.21955811461153057,0.3547195524732818,2115.880637753104,4529.979055040963
1.3155789473684212,815.3308673223229,814.7045032304769,0.13346353777010284,0.2747663000635245,0.21923369993647548,0.3547195524732821,2115.3116654189653,4536.659940916029
1.319059314954052,815.5898695013955,814.9606112397499,0.13406345375020687,0.274983350534274,0.21901664946572602,0.3547195524732822,2114.9309930189042,4541.10739451145
1.3225396825396827,815.8497607811651,815.2177840114557,0.13466508454822315,0.2752010214286285,0.2187989785713715,0.35471955247328235,2114.549232493386,4545.549699362729
1.3260200501253134,816.1105182457806,815.475984049908,0.1352684325415645,0.27541931360673944,0.21858068639326053,0.3547195524732825,2114.16638233384,4549.986878676718
1.3295004177109442,816.3721208929244,815.7351767649008,0.13587349963144738,0.27563822775646973,0.21836177224353026,0.3547195524732827,2113.7824413338626,4554.418955348162
1.332980785296575,816.6345494849033,815.9953302999985,0.13648028719164224,0.2758577643748515,0.21814223562514853,0.35471955247328285,2113.3974086217377,4558.845951977972
1.3364611528822057,816.8977864014557,816.2564153562643,0.13708879600868712,0.2760779237464553,0.21792207625354473,0.354719552473283,2113.0112836983735,4563.267890890041
1.3399415204678364,817.1618154948279,816.5184050136845,0.13769902621236357,0.2762987059182363,0.2177012940817637,0.3547195524732832,2112.6240664814177,4567.684794146662
1.3434218880534672,817.4266219474011,816.7812745520588,0.1383109771950676,0.27652011067036253,0.21747988932963747,0.35471955247328335,2112.2357573564213,4572.096683562543
1.346902255639098,817.6921921319191,817.0450012726756,0.13892464751851633,0.2767421374824611,0.21725786251753884,0.3547195524732835,2111.8463572360365,4576.503580717499
1.3503826232247287,817.9585134741455,817.3095643216947,0.13954003480601135,0.2769647854946392,0.21703521450536079,0.35471955247328374,2111.45586762838,4580.905506967815
1.3538629908103594,818.2255743175884,817.5749445157982,0.14015713561822818,0.27718805346254416,0.21681194653745584,0.3547195524732839,2111.064290715851,4585.302483456356
1.3573433583959902,818.4933637897399,817.8411241703441,0.14077594531021603,0.27741193970562605,0.21658806029437394,0.35471955247328407,2110.671629445869,4589.694531121403
1.3608237259816207,818.76187166911,818.1080869299685,0.1413964578669679,0.27763644204764665,0.21636355795235337,0.35471955247328424,2110.2778876352145,4594.081670704286
1.3643040935672517,819.0310882521695,818.3758176013115,0.14201866571455518,0.2778615577483476,0.2161384422516524,0.35471955247328446,2109.8830700898698,4598.463922755792
1.3677844611528824,819.3010042191489,818.6443019873017,0.14264255950340834,0.2780872834250411,0.2159127165749589,0.3547195524732846,2109.4871827425372,4602.841307641376
1.3712648287385132,819.571610497485,818.9135267222046,0.14326812785986648,0.27831361496272017,0.21568638503727983,0.3547195524732848,2109.090232810292,4607.21384554516
1.3747451963241442,819.8428981215363,819.1834791064243,0.14389535710160253,0.278540547411099,0.21545945258890095,0.354719552473285,2108.6922289751574,4611.58155647272
1.3782255639097747,820.1148580870238,819.4541469398448,0.14452423091196573,0.27876807486678984,0.21523192513321018,0.3547195524732852,2108.2931815907473,4615.94446025261
1.3817059314954054,820.3874811984698,819.7255183522897,0.14515472996766102,0.2789961903385964,0.2150038096614036,0.3547195524732854,2107.8931029185205,4620.302576536613
1.3851862990810362,820.660757907729,819.9975816294841,0.14578683151350677,0.2792248855936611,0.21477511440633892,0.35471955247328557,2107.492007397615,4624.6559247986415
1.388666666666667,820.9346781415034,820.2703250326975,0.14642050887729358,0.2794541509819398,0.21454584901806018,0.3547195524732858,2107.089911952691,4629.004524332217
1.3921470342522977,821.2092311155354,820.5437366100451,0.147055730917,0.2796839752362042,0.2143160247637958,0.354719552473286,2106.6868363446956,4633.348394246458
1.3956274018379282,821.4844051329618,820.8178039972174,0.14769246139183947,0.2799143452444851,0.2140856547555149,0.3547195524732862,2106.282803569961,4637.687553460437
1.399107769423559,821.7601873641007,821.0925142052057,0.1483306582478278,0.28014524579159017,0.21385475420840985,0.3547195524732864,2105.8778403135425,4642.022020695803
1.4025881370091897,822.0365636047409,821.3678533923847,0.1489702728078147,0.2803766592660558,0.2136233407339442,0.3547195524732866,2105.4719774631785,4646.3518144675
1.4060685045948205,822.3135180098158,821.6438066181253,0.14961124885526686,0.2806085653286589,0.21339143467134114,0.35471955247328685,2105.065250690668,4650.676953072409
1.4095488721804512,822.5910327991901,821.9203575749318,0.15025352160059008,0.28084094053843034,0.21315905946156966,0.35471955247328707,2104.6577011077857,4654.997454575717
1.4130292397660817,822.8690879321887,822.1974882959685,0.15089701651853255,0.2810737579320261,0.2129262420679739,0.3547195524732873,2104.2493760039974,4659.313336794772
1.4165096073517127,823.1476607474834,822.4751788347496,0.1515416480453461,0.28130698655235814,0.21269301344764188,0.3547195524732875,2103.840329673169,4663.624617280179
1.4199899749373435,823.4267255650575,822.7534069137704,0.15218731812505096,0.28154059092263084,0.21245940907736915,0.35471955247328774,2103.430624336021,4667.9313132938605
1.4234703425229742,823.7062532472487,823.0321475389724,0.15283391459557122,0.2817745304624427,0.21222546953755728,0.35471955247328796,2103.020331164199,4672.233441783762
1.4269507101086052,823.9862107163832,823.3113725772156,0.15348130940791915,0.2820087588434845,0.21199124115651552,0.3547195524732882,2102.609531410272,4676.531019354902
1.4304310776942357,824.2665604273259,823.5910502944304,0.15412935667533,0.28224322328371326,0.21175677671628673,0.3547195524732884,2102.1983176456456,4680.824062236406
1.435651629072682,824.6877257618478,824.0113359950797,0.1551022821280436,0.28259522912206236,0.2114047708779376,0.35471955247328874,2101.5809547490935,4687.2551584901585
1.440872180451128,825.109508208213,824.4324173240104,0.15607564118435943,0.282947391838823,0.211052608161177,0.3547195524732891,2100.9633167124734,4693.676138580373
1.446092731829574,825.5317057404246,824.8541250362085,0.15704864658471523,0.2832994266023449,0.2107005733976551,0.35471955247328946,2100.345903085716,4700.087051239058
1.4513132832080202,825.9540772238967,825.2762569426214,0.1580203604896556,0.2836509941009544,0.21034900589904562,0.35471955247328985,2099.72930896815,4706.487942093326
1.4565338345864665,826.3763369692102,825.6985728163278,0.15898967530768104,0.2840016936064423,0.2099983063935577,0.35471955247329023,2099.114237174049,4712.8788531747205
1.4617543859649125,826.7981495999836,826.1207893449755,0.15995529642232884,0.2843510567246968,0.2096489432753032,0.3547195524732906,2098.5015091930427,4719.259822368114
1.4669749373433585,827.2191257963169,826.5425755334359,0.16091572918712913,0.28469854269045963,0.20930145730954036,0.354719552473291,2097.8920734423727,4725.630882808207
1.4721954887218047,827.6388196569968,826.9635491156779,0.16186927324390404,0.28504353631167867,0.20895646368832133,0.3547195524732914,2097.287008872175,4731.992062239606
1.4756758563074355,827.9176572145199,827.2435338936547,0.16250021129389894,0.2852718106122588,0.2087281893877412,0.3547195524732917,2096.8866516392513,4736.2273700633095
1.4791562238930662,828.1955402207407,827.5228229978425,0.16312663749079706,0.28549845251785183,0.20850154748214822,0.35471955247329195,2096.4891573704826,4740.458300920437
1.482636591478697,828.4722966101252,827.801264345577,0.16374791118530474,0.285723230240615,0.20827676975938494,0.35471955247329223,2096.094932585302,4744.684858227198
1.4861169590643277,828.7477459359919,828.0786966351443,0.16436336642978935,0.2859459028397303,0.2080540971602697,0.3547195524732925,2095.7043998560234,4748.907043941223
1.4895973266499585,829.0217011503348,828.3549504907943,0.16497231992321396,0.28616622309589246,0.2078337769041076,0.3547195524732928,2095.3179927664387,4753.124858509272
1.4930776942355892,829.29397082791,828.6298499947114,0.16557408061744489,0.28638394098688547,0.20761605901311456,0.35471955247329306,2094.9361498162048,4757.338300831756
1.4965580618212198,829.5643617994259,828.9032146005616,0.1661679607752345,0.2865988076883768,0.20740119231162318,0.35471955247329334,2094.5593074040808,4761.5473682474085
1.5000384294068507,829.8326821244746,829.1748613978313,0.16675328812903556,0.28681057997299403,0.20718942002700602,0.3547195524732937,2094.187892112636,4765.752056541033
1.5035187969924815,830.0987443011113,829.4446076689541,0.16732941865733586,0.28701902483282077,0.20698097516717923,0.35471955247329395,2093.8223126011208,4769.952359976455
1.5069991645781122,830.3623685800956,829.7122736550874,0.16789574939035093,0.28722392411251557,0.20677607588748442,0.35471955247329423,2093.4629514797057,4774.14827135588
1.5104795321637432,830.6233862321003,829.9776854245922,0.1684517305977314,0.28742507891884156,0.20657492108115846,0.35471955247329456,2093.1101575758566,4778.339782105641
1.5139598997493737,830.8816426092666,830.2406777238615,0.16899687671072555,0.2876223135723209,0.20637768642767915,0.35471955247329484,2092.764239003757,4782.526882387079
1.5174402673350045,831.1369998502191,830.5010966854229,0.1695307753952206,0.28781547888987413,0.2061845211101259,0.3547195524732952,2092.425457407073,4786.709561230045
1.5209206349206352,831.3893390998063,830.7588022742339,0.1700530943154071,0.288004454631924,0.20599554536807602,0.3547195524732955,2092.0940236671177,4790.887806685365
1.5244010025062658,831.6385621488735,831.0136703692816,0.17056358529592927,0.28818915100826714,0.20581084899173285,0.3547195524732958,2091.7700952617915,4795.061605991791
1.5278813700918965,831.8845924409952,831.2655944020457,0.17106208578176038,0.2883695092062595,0.20563049079374052,0.3547195524732961,2091.453775339225,4799.230945752364
1.5313617376775273,832.1273754370245,831.5144865030571,0.17154851768520094,0.28854550097365816,0.20545449902634186,0.35471955247329645,2091.1451134494105,4803.39581211494
1.534842105263158,832.36687836933,831.7602781391661,0.17202288387584902,0.28871712734868793,0.20528287265131212,0.3547195524732968,2090.8441077714647,4807.5561909517555
1.5383224728487888,832.603089451494,832.0029202538666,0.17248526269547648,0.2888844166755153,0.20511558332448473,0.3547195524732971,2090.550708594176,4811.712068033405
1.5418028404344195,832.8360166333235,832.242382948375,0.1729358009565943,0.2890474220711195,0.20495257792888052,0.35471955247329745,2090.264822758714,4815.863429193231
1.5452832080200503,833.065686004385,832.4786547603767,0.17337470591062334,0.28920621851936484,0.20479378148063518,0.3547195524732978,2089.9863187551705,4820.010260478987
1.5487635756056808,833.2921399525449,832.7117416097425,0.17380223665517452,0.2893608997621423,0.2046391002378577,0.3547195524732981,2089.7150321750064,4824.15254828949
1.5522439431913118,833.5154351788955,832.94166548625,0.17421869540032608,0.2895115751394961,0.20448842486050392,0.35471955247329845,2089.450771252976,4828.290279494865
1.5557243107769425,833.7356406593186,833.1684629543222,0.17462441894316702,0.2896583665051009,0.20434163349489912,0.35471955247329884,2089.1933222768916,4832.423441539729
1.5592046783625733,833.952835628192,833.3921835452583,0.17501977061984003,0.28980140531449955,0.20419859468550045,0.35471955247329917,2088.942454694399,4836.552022529376
1.5626850459482042,834.167107643533,833.6128880997811,0.17540513292427035,0.2899408299545484,0.20405917004545163,0.3547195524732995,2088.697925796711,4840.676011299521
1.5661654135338348,834.3785507769048,833.8306471142417,0.1757809009097712,0.2900767833561085,0.20392321664389157,0.3547195524732999,2088.4594849055684,4844.795397470591
1.5696457811194655,834.5872639568397,834.0455391336338,0.17614747642760198,0.29020941090954755,0.20379058909045242,0.3547195524733002,2088.2268770291253,4848.9101714878125
1.5731261487050963,834.7933494820643,834.2576492245304,0.17650526320744536,0.2903388586848499,0.2036611413151501,0.3547195524733006,2087.9998459835956,4853.020324648515
1.576606516290727,834.9969117107072,834.4670675517461,0.1768546627483045,0.29046527194493643,0.20353472805506356,0.35471955247330095,2087.7781370006546,4857.12584911814
1.5800868838763578,835.1980559238723,834.6738880742977,0.17719607096338277,0.2905887939317777,0.20341120606822227,0.35471955247330134,2087.5614988564066,4861.226737936445
1.5835672514619885,835.3968873563445,834.8782073692921,0.17752987550749658,0.29070956489944805,0.20329043510055195,0.3547195524733017,2087.3496855672574,4865.322985015346
1.5870476190476193,835.5935103834137,835.0801235867218,0.17785645370835587,0.29082772136565943,0.20317227863434054,0.3547195524733021,2087.1424577026037,4869.414585129753
1.5905279866332502,835.7880278504668,835.2797355337075,0.17817617102136252,0.2909433955527058,0.20305660444729418,0.3547195524733025,2086.9395833653302,4873.50153390263
1.5940083542188808,835.9805405309128,835.4771418834508,0.17848937993043382,0.29105671498977914,0.20294328501022085,0.35471955247330283,2086.7408388892854,4877.583827785416
1.5974887218045115,836.1711466977009,835.6724405017895,0.17879641922238404,0.2911678022504396,0.2028321977495604,0.3547195524733032,2086.5460092997164,4881.66146403478
1.6009690893901423,836.3599417940825,835.8657278827338,0.17909761356935153,0.29127677480153724,0.20272322519846275,0.3547195524733036,2086.354888578236,4885.734440686586
1.6044494569757728,836.5470181900118,836.0570986834642,0.17939327336112393,0.29138374494254693,0.20261625505745307,0.35471955247330406,2086.1672797692227,4889.802756527832
1.6079298245614038,836.7324650116337,836.2466453489136,0.1796836947369117,0.2914888198170641,0.20251118018293593,0.35471955247330444,2085.982994959655,4893.866411067171
1.6114101921470345,836.9163680324236,836.4344578160516,0.1799691597732226,0.2915921014807778,0.20240789851922222,0.35471955247330483,2085.8018551599,4897.925404504579
1.6148905597326653,837.0988096157917,836.6206232883102,0.18024993679141763,0.2916936870127453,0.20230631298725474,0.3547195524733052,2085.6236901085545,4901.97973770061
1.618370927318296,837.279868700119,836.8052260710665,0.18052628075445104,0.29179366865893275,0.20220633134106725,0.35471955247330567,2085.448338020697,4906.029412145596
1.6218512949039268,837.4596208183614,836.98834745974,0.18079843372778767,0.2918921339989761,0.20210786600102393,0.35471955247330605,2085.2756452954163,4910.074429929121
1.6253316624895575,837.6381381453922,837.1700656727479,0.18106662538404808,0.29198916612876213,0.20201083387123783,0.3547195524733065,2085.1054661955905,4914.114793709966
1.6288120300751883,837.8154895672328,837.3504558222977,0.18133107353493538,0.2920848438528807,0.2019151561471193,0.3547195524733069,2084.9376625103605,4918.150506686757
1.6322923976608188,837.9917407671962,837.5295899167279,0.18159198467740273,0.2921792418822286,0.20182075811777145,0.35471955247330733,2084.7721032085587,4922.181572569427
1.6357727652464498,838.1669543247249,837.7075368888165,0.1818495545437416,0.29227243103303235,0.20172756896696764,0.3547195524733077,2084.6086640896583,4926.207995551618
1.6392531328320805,838.3411898234041,837.8843626451551,0.1821039686476808,0.2923644784244279,0.2016355215755721,0.35471955247330816,2084.4472274372474,4930.229780284086
1.6427335004177113,838.5145039652252,838.0601301323187,0.18235540282050008,0.292455447672427,0.20154455232757298,0.3547195524733086,2084.2876816788435,4934.246931849168
1.6462138680033418,838.6869506886693,838.234899416135,0.18260402373263482,0.29254539907863464,0.20145460092136538,0.35471955247330905,2084.129921054912,4938.259455736345
1.6496942355889725,838.8585812886298,838.4087277708791,0.18284998939753164,0.2926343898125447,0.2013656101874553,0.3547195524733095,2083.973845299149,4942.267357818896
1.6531746031746033,839.0294445366195,838.5816697757205,0.1830934496557404,0.2927224740866852,0.20127752591331477,0.35471955247330994,2083.8193593313044,4946.270644331656
1.6566549707602338,839.1995867999174,838.753777416116,0.18333454663752993,0.2928097033239934,0.2011902966760066,0.3547195524733104,2083.666372963631,4950.269321849856
1.6601353383458648,839.3690521587132,838.925100188275,0.18357341520353293,0.29289612631724155,0.20110387368275848,0.35471955247331083,2083.514800621278,4954.263397269044
1.6636157059314955,839.5378825204347,839.0956852050999,0.18381018336296037,0.2929817893803476,0.20101821061965244,0.3547195524733113,2083.3645610769145,4958.2528777860125
1.6670960735171263,839.7061177306947,839.2655773023241,0.18404497266958153,0.29306673649164133,0.20093326350835863,0.3547195524733117,2083.215577199465,4962.237770880767
1.670576441102757,839.8737956804134,839.4348191437867,0.18427789859576088,0.2931510094291917,0.20084899057080832,0.3547195524733122,2083.067775716764,4966.218084299434
1.6740568086883878,840.0409524088107,839.603451325004,0.184509070885098,0.2932346478983918,0.20076535210160817,0.35471955247331266,2082.921086991796,4970.193826038109
1.6775371762740185,840.2076222021204,839.7715124744017,0.18473859388460406,0.2933176896521416,0.20068231034785836,0.3547195524733131,2082.7754448119094,4974.165004327597
1.6810175438596493,840.3738376878567,839.9390393516691,0.18496656685692606,0.2934001706038106,0.20059982939618942,0.3547195524733136,2082.6307861907007,4978.131627618991
1.6844979114452798,840.5396299246615,840.1060669428902,0.1851930842738295,0.29348212493342035,0.20051787506657967,0.35471955247331405,2082.4870511817862,4982.093704570066
1.6879782790309108,840.7050284877014,840.2726285521566,0.18541823609160796,0.2935635851872882,0.20043641481271182,0.35471955247331455,2082.3441827040424,4986.051244032436
1.6914586466165416,840.8700615497199,840.4387558895024,0.18564210800956968,0.29364458237154806,0.20035541762845194,0.35471955247331505,2082.2021263775846,4990.0042550394355
1.6949390142021723,841.0347559578178,840.6044791550439,0.18586478171241597,0.29372514603984323,0.20027485396015682,0.35471955247331555,2082.06083036997,4993.9527467946855
1.6984193817878033,841.1991373060913,840.7698271192795,0.18608633509747408,0.2938053043755395,0.20019469562446054,0.354719552473316,2081.9202452520058,4997.896728661318
1.7018997493734338,841.3632300042808,840.9348271995605,0.18630684248772503,0.2938850842687991,0.2001149157312009,0.3547195524733165,2081.7803238625747,5001.836210151803
1.7053801169590646,841.5270573425637,841.0995055327605,0.18652637483140463,0.29396451138879653,0.20003548861120343,0.354719552473317,2081.641021181981,5005.771200918365
1.7088604845446953,841.6906415526889,841.2638870442383,0.18674499988916093,0.2940436102514325,0.19995638974856747,0.3547195524733175,2081.502294213189,5009.701710743924
1.712340852130326,841.8540038655926,841.4279955131692,0.18696278240942577,0.2941224042827834,0.19987759571721658,0.354719552473318,2081.364101870545,5013.627749533579
1.717561403508772,842.0986754034825,841.6736956243496,0.18728801109911528,0.29424007249389805,0.19975992750610194,0.35471955247331877,2081.1577303285644,5019.508446472155
1.7227819548872183,842.3429578357287,841.918904537958,0.18761168042739385,0.2943571765257951,0.19964282347420495,0.35471955247331954,2080.952348268229,5025.379140404834
1.7280025062656645,842.5869117192633,842.1636897954277,0.18793397553165545,0.2944737833614517,0.19952621663854828,0.3547195524733203,2080.7478382119275,5031.2398660743465
1.7332230576441106,842.830593763763,842.4081145334488,0.18825506996651534,0.29458995579317937,0.19941004420682065,0.3547195524733211,2080.544090031819,5037.090658660185
1.7384436090225566,843.0740571317601,842.6522378308509,0.18857512659767475,0.29470575274602456,0.19929424725397543,0.35471955247332193,2080.3410003826352,5042.931553733397
1.7436641604010028,843.3173517124915,842.8961150258607,0.1888942984153739,0.29482122957207796,0.19917877042792204,0.35471955247332276,2080.1384721855134,5048.7625872150575
1.754105263157895,843.8036191792061,843.383335468734,0.18953055458082183,0.2950514279745324,0.1989485720254676,0.3547195524733244,2079.734740380415,5060.395214613472
1.759325814536341,844.046677622719,843.6267731843292,0.189847901878986,0.2951662446867747,0.1988337553132253,0.3547195524733252,2079.5333699191315,5066.196881793014
1.764546365914787,844.2897387883941,843.8701541830296,0.19016489145499538,0.2952809319746231,0.19871906802537692,0.3547195524733261,2079.332226447886,5071.988833846924
1.769766917293233,844.5328395431877,844.1135189827074,0.1904816368290526,0.2953955309098514,0.19860446909014862,0.3547195524733269,2079.131237933245,5077.771107931567
1.7749874686716793,844.7760146921959,844.3569057671282,0.19079824523446606,0.29551008028962594,0.19848991971037405,0.3547195524733278,2078.9303363310783,5083.543741365418
1.7784678362573103,844.9381891048375,844.5191937088184,0.19100929170425004,0.2955864372081537,0.1984135627918463,0.35471955247332837,2078.796418301152,5087.386826229899
1.7819482038429408,845.1004205359485,844.6815176417,0.1912203511465441,0.2956627988201544,0.1983372011798456,0.354719552473329,2078.6624920396116,5091.22565413421
1.7854285714285716,845.2627179506362,844.8438873585931,0.19143145121150246,0.29573917512949394,0.19826082487050609,0.35471955247332954,2078.52854000125,5095.060236227087
1.7889089390142023,845.4250899947783,845.0063122929074,0.1916426185697875,0.2958155757856565,0.1981844242143435,0.35471955247333015,2078.3945452623884,5098.890583675241
1.7923893065998329,845.5875450103078,845.1688015359589,0.1918538789590103,0.2958920101005471,0.19810798989945289,0.35471955247333076,2078.2604914914095,5102.716707660976
1.7958696741854638,845.750091050459,845.3313638538199,0.192065257231191,0.2959684870656627,0.1980315129343373,0.35471955247333137,2078.1263629186424,5106.538619379942
1.7993500417710946,845.9127358959574,845.4940077043457,0.19227677740551183,0.29604501537117817,0.19795498462882183,0.354719552473332,2077.992144302885,5110.356330039004
1.8028304093567253,846.0754870743556,845.6567412557719,0.19248846273600823,0.2961216034304372,0.19787839656956277,0.3547195524733326,2077.857820888457,5114.169850854264
1.806310776942356,846.2383518874584,845.8195724099835,0.19270033581598484,0.2961982594177302,0.19780174058226976,0.3547195524733332,2077.723378338937,5117.97919304926
1.8097911445279868,846.4013374579249,845.9825088373877,0.1929124187680245,0.2962749913370397,0.1977250086629603,0.3547195524733338,2077.5888026165985,5121.784367853433
1.8132715121136176,846.5644508203286,846.1455580391504,0.1931247336311541,0.2963518071621175,0.1976481928378825,0.3547195524733345,2077.4540797367345,5125.5853865010795
1.8167518796992483,846.7276991139412,846.3087274724934,0.1933373031978294,0.29642871513930713,0.19757128486069286,0.3547195524733351,2077.3191952365546,5129.382260231292
1.8202322472848789,846.8910900068072,846.472024819843,0.19355015287222233,0.2965057244598748,0.19749427554012522,0.35471955247333575,2077.1841329960234,5133.175000289994
1.8237126148705098,847.0546326422075,846.6354585835485,0.1937633148329674,0.29658284676609714,0.19741715323390288,0.35471955247333636,2077.048872596418,5136.963617936652
1.8271929824561406,847.2183397492554,846.7990394079891,0.1939768373251969,0.2966600995131328,0.19733990048686717,0.35471955247333703,2076.9133834241343,5140.748124461348
1.8306733500417713,847.3822322693849,846.9627829816513,0.1941908050131959,0.2967375133326429,0.19726248666735707,0.3547195524733377,2076.777611756055,5144.528531224793
1.8341537176274023,847.5463490345442,847.1267161502775,0.1944053814273076,0.29681514739014253,0.1971848526098575,0.35471955247333836,2076.6414538251693,5148.304849747369
1.8376340852130328,847.7107648121829,847.2908885378706,0.19462088745333014,0.29689311778257826,0.19710688221742176,0.35471955247333903,2076.5047060156853,5152.077091895133
1.8411144527986636,847.875614993161,847.455389480331,0.19483790573373264,0.29697163531083953,0.19702836468916046,0.3547195524733397,2076.3669986159866,5155.845270222839
1.8445948203842943,848.0410990557851,847.6203552985753,0.19505728127958613,0.2970510057011562,0.1969489942988438,0.35471955247334036,2076.2277954303336,5159.609398446784
1.848075187969925,848.2073371358637,847.7858955843225,0.19527944449085982,0.2971313846728606,0.19686861532713942,0.354719552473341,2076.0868233515,5163.369491582515
1.8498153717627406,848.2904800276967,847.8687574983521,0.19539032293635128,0.29717150065507786,0.19682849934492214,0.35471955247334136,2076.016466225902,5165.248029376383
1.8506854636591483,848.3317729598175,847.9100597232195,0.19544438475043682,0.2971910602977377,0.19680893970226235,0.3547195524733415,2075.98216168793,5166.18692131622
1.8515555555555558,848.372550883352,847.951096332209,0.19549600456550695,0.2972097364216158,0.19679026357838422,0.3547195524733417,2075.94940670299,5167.1255614167685
1.8524256474519634,848.4124419302451,847.9916581876334,0.1955434793206745,0.2972269128568158,0.19677308714318417,0.35471955247334186,2075.919281936204,5168.063948588941
1.853295739348371,848.4511636237244,848.0315717590099,0.195585557019755,0.29724213662930443,0.1967578633706956,0.354719552473342,2075.8925818328075,5169.002081126131
1.8541658312447789,848.4887371836129,848.0708143940517,0.19562243300376192,0.2972554784137432,0.19674452158625677,0.3547195524733422,2075.869182440556,5169.93995707443
1.8550359231411866,848.5254427059842,848.1095014106951,0.19565550972420823,0.29726744561912155,0.19673255438087847,0.3547195524733424,2075.848193843859,5170.877574777333
1.8559060150375943,848.561597145047,848.1477782146525,0.19568633184550008,0.2972785971072593,0.19672140289274068,0.3547195524733426,2075.828635886951,5171.814933140624
1.856776106934002,848.5974265446337,848.1857538348863,0.19571598588000183,0.29728932597990415,0.19671067402009584,0.35471955247334275,2075.8098191311724,5172.752031561305
1.8585162907268173,848.6685705547501,848.2610397999887,0.19577395644739917,0.29731029981517487,0.1966897001848251,0.3547195524733431,2075.773034321706,5174.625447590684
1.8602564745196328,848.7393343176481,848.3356235176848,0.19583151044421135,0.29733112293460445,0.19666887706539554,0.3547195524733434,2075.7365138441287,5176.4978221486435
1.8619966583124483,848.8098451353346,848.4096129820869,0.19588912842860068,0.2973519692048321,0.1966480307951679,0.3547195524733438,2075.6999527636917,5178.369155437255
1.8654770258980788,848.9502718069613,848.5560607043839,0.19600485793672445,0.2973938403085375,0.1966061596914625,0.35471955247334447,2075.626517430951,5182.108700221792
1.8689573934837096,849.0900568846878,848.7007918639466,0.19612126495347462,0.2974359565358455,0.19656404346415451,0.3547195524733452,2075.552652189951,5185.844086959836
1.8741779448621556,849.2988404799913,848.9153695956319,0.19629707975170832,0.29749956658456284,0.19650043341543716,0.35471955247334624,2075.4410901655515,5191.439384489803
1.8793984962406018,849.5068948422675,849.127690931182,0.19647429850658032,0.29756368458682597,0.19643631541317405,0.35471955247334735,2075.3286372704956,5197.025365041775
1.8846190476190479,849.7145269635399,849.3384300345228,0.1966529140497726,0.297628307949127,0.19637169205087304,0.3547195524733484,2075.215298053389,5202.60205668683
1.8898395989974939,849.9219738180674,849.5481015105335,0.19683293687564854,0.29769344046834173,0.19630655953165826,0.3547195524733495,2075.1010658551063,5208.169490183071
1.8950601503759401,850.1294179787357,849.7570983962814,0.1970143844208355,0.29775908845306737,0.19624091154693263,0.35471955247335063,2074.985929611362,5213.727698300781
1.9002807017543861,850.3370002658228,849.9657212307378,0.1971972771753304,0.2978252593166144,0.1961747406833856,0.3547195524733518,2074.869876320374,5219.276715303123
1.9055012531328321,850.5448296295305,850.1742002216406,0.19738163718066198,0.2978919610336398,0.19610803896636017,0.3547195524733529,2074.752891995848,5224.816576549913
1.9107218045112784,850.7529907547735,850.3827121214205,0.19756748738688312,0.29795920190750613,0.19604079809249392,0.35471955247335407,2074.6349620749916,5230.347318196512
1.9159423558897246,850.9615498742063,850.5913930648483,0.19775485133647303,0.29802699045591624,0.19597300954408378,0.35471955247335524,2074.5160716190935,5235.86897696548
1.9211629072681706,851.1705591981529,850.8003483304784,0.19794375298501335,0.29809533534603444,0.19590466465396558,0.3547195524733564,2074.3962054273097,5241.381589973636
1.9263834586466166,851.3800602855163,851.0096597608815,0.19813421658652788,0.29816424535300157,0.1958357546469984,0.35471955247335757,2074.275348109423,5246.885194601209
1.9316040100250629,851.5900866069746,851.2193914020077,0.19832626661464775,0.29823372933141296,0.19576627066858707,0.35471955247335873,2074.1534841358653,5252.379828392958
1.9368245614035091,851.8006654931091,851.4295937882747,0.19851992770580348,0.29830379619476477,0.19569620380523522,0.35471955247335996,2074.030597873766,5257.86552898352
1.9420451127819551,852.0118196147416,851.640307198109,0.1987152246178619,0.2983744549004891,0.1956255450995109,0.3547195524733612,2073.906673613197,5263.342334041147
1.9472656641604011,852.2235681075168,851.8515641268758,0.19891218219945062,0.2984457144388554,0.19555428556114457,0.3547195524733624,2073.78169558664,5268.8102812253765
1.9524862155388474,852.4359274262112,852.063391165116,0.1991108253677392,0.2985175838249318,0.1954824161750682,0.3547195524733637,2073.6556479830824,5274.269408155258
1.9577067669172936,852.6489119935737,852.2758104248701,0.19931117909209442,0.2985900720926713,0.1954099279073287,0.3547195524733649,2073.5285149583906,5279.719752385593
1.9629273182957396,852.8625346931036,852.4888406226976,0.19951326838233116,0.2986631882906612,0.1953368117093388,0.3547195524733662,2073.400280642766,5285.161351389226
1.9681478696741856,853.0768072433359,852.7024979019615,0.19971711828066227,0.29873694147921037,0.19526305852078965,0.35471955247336745,2073.2709291458505,5290.594242543944
1.9733684210526319,853.2917404820785,852.9167964570719,0.1999227538561386,0.2988113407283377,0.19518865927166232,0.3547195524733687,2073.1404445602575,5296.018463122837
1.9785889724310781,853.5073445822961,853.1317490073596,0.20013020020109987,0.29888639511648807,0.19511360488351193,0.35471955247337006,2073.008810963822,5301.434050287301
1.9838095238095241,853.7236292161301,853.3473671568136,0.20033948242924993,0.29896211372983594,0.19503788627016405,0.3547195524733714,2072.8760124208225,5306.841041082034
1.9890300751879701,853.9406036795223,853.5636616671653,0.20055062567483722,0.2990385056619888,0.1949614943380112,0.3547195524733727,2072.7420329825013,5312.239472431542
1.9942506265664164,854.1582769869628,853.7806426652244,0.200763655092768,0.2991155800140282,0.19488441998597184,0.35471955247337406,2072.6068566869917,5317.6293811377745
1.9994711779448626,854.3766579435504,853.9983198003152,0.2009785958593261,0.29919334589477004,0.19480665410523,0.3547195524733754,2072.4704675588637,5323.010803878639
2.0046917293233086,854.5957551998439,854.2167023638564,0.20119547317339664,0.29927181242120754,0.19472818757879248,0.3547195524733768,2072.332849608344,5328.383777207157
2.0099122807017546,854.8155772937171,854.4357993802606,0.20141431225828532,0.29935098871916915,0.19464901128083084,0.35471955247337816,2072.193986830164,5333.748337551116
2.0151328320802007,855.0361326822594,854.6556196760306,0.20163513836356337,0.2994308839239864,0.19456911607601357,0.35471955247337955,2072.053863202389,5339.10452121309
2.020353383458647,855.257429766224,854.8761719323709,0.20185797676735318,0.29951150718132064,0.19448849281867936,0.354719552473381,2071.9124626849675,5344.452364370753
2.025573934837093,855.4794769087734,855.0974647252802,0.2020828527787131,0.29959286764802573,0.1944071323519743,0.3547195524733824,2071.769769218216,5349.7919030773855
2.030794486215539,855.7022824499146,855.3195065561548,0.20230979174013433,0.29967497449305175,0.19432502550694825,0.3547195524733838,2071.625766721239,5355.12317326256
2.036015037593985,855.9258547177194,855.5423058752361,0.20253881903036816,0.2997578368984677,0.19424216310153228,0.3547195524733853,2071.48043909013,5360.446210732933
2.041235588972431,856.1502020370349,855.7658710995968,0.2027699600671411,0.2998414640604438,0.19415853593955615,0.35471955247338677,2071.333770196253,5365.7610511731355
2.0464561403508776,856.3753327363451,855.9902106270146,0.20300324031003403,0.29992586519029346,0.19407413480970656,0.35471955247338827,2071.185743884413,5371.067730146726
2.0516766917293237,856.6012551532243,856.2153328467322,0.20323868526345015,0.30001104951554647,0.1939889504844535,0.35471955247338977,2071.036343970972,5376.366283097198
2.0568972431077697,856.8279776387326,856.4412461478637,0.20347632047966085,0.30009702628105184,0.19390297371894816,0.3547195524733913,2070.88555424192,5381.65674534903
2.0621177944862157,857.0555085610017,856.6679589260162,0.20371617156188482,0.30018380475009104,0.19381619524990895,0.3547195524733928,2070.733358450917,5386.93915210875
2.0673383458646617,857.2838563082287,856.8954795885738,0.20395826416746798,0.3002713942055291,0.1937286057944709,0.3547195524733944,2070.5797403172774,5392.213538466041
2.072558897243108,857.5130292912143,857.1238165589659,0.2042026240111085,0.30035980395098105,0.19364019604901897,0.354719552473396,2070.4246835239223,5397.479939394848
2.077779448621554,857.7430359455752,857.3529782801805,0.20444927686818298,0.30044904331201544,0.19355095668798458,0.35471955247339754,2070.2681717152723,5402.738389754496
2.083,857.9738847336705,857.5829732176866,0.20469824857796542,0.30053912163731905,0.19346087836268094,0.35471955247339915,2070.110188495199,5407.9889242908375
2.088220551378446,858.2055841464022,857.8138098619569,0.20494956504718675,0.3006300482999847,0.19336995170001528,0.35471955247340076,2069.9507174247724,5413.231577637376
2.093441102756892,858.4381427048191,858.0454967306428,0.2052032522533468,0.30072183269870945,0.19327816730129055,0.35471955247340237,2069.789742020155,5418.466384316425
2.0986616541353387,858.6715689616657,858.2780423705299,0.20545933624829116,0.30081448425908874,0.19318551574091122,0.35471955247340403,2069.6272457503346,5423.693378740247
2.1038822055137847,858.9058715028526,858.5114553593191,0.20571784316179892,0.3009080124349146,0.19309198756508542,0.3547195524734057,2069.463212034846,5428.91259521221
2.1091027568922307,859.1410589488845,858.7457443072822,0.20597879920522844,0.30100242670949434,0.19299757329050568,0.3547195524734074,2069.2976242414593,5434.124067927944
2.114323308270677,859.3771399562186,858.9809178588038,0.2062422306750609,0.301097736596933,0.192902263403067,0.3547195524734091,2069.1304656839307,5439.327830976498
2.119543859649123,859.6141232186624,859.2169846938899,0.2065081639567612,0.30119395164353,0.19280604835646997,0.3547195524734108,2068.9617196195513,5444.523918341495
2.124764411027569,859.8520174687412,859.4539535296258,0.20677662552858553,0.3012910814291569,0.19270891857084316,0.3547195524734126,2068.7913692467328,5449.712363902297
2.129984962406015,860.0908314790363,859.6918331215874,0.20704764196531888,0.3013891355686092,0.1926108644313908,0.3547195524734143,2068.619397702635,5454.89320143517
2.135205513784461,860.330574063558,859.9306322652542,0.20732123994222573,0.3014881237130364,0.19251187628696365,0.3547195524734161,2068.44578806066,5460.066464614448
2.1404260651629077,860.5712540791127,860.1703597974083,0.2075974462389766,0.301588055551362,0.192411944448638,0.3547195524734179,2068.270523327959,5465.232187013694
2.1456466165413537,860.8128804266852,860.4110245975329,0.20787628774366257,0.3016889408117363,0.19231105918826366,0.3547195524734197,2068.0935864428857,5470.390402106876
2.1508671679197997,861.0554620528203,860.6526355892106,0.20815779145679347,0.30179078926298303,0.192209210737017,0.3547195524734215,2067.914960272459,5475.541143269535
2.156087719298246,861.2990079510272,860.8952017415314,0.2084419844953947,0.30189361071608106,0.1921063892839189,0.3547195524734234,2067.734627609765,5480.684443779956
2.161308270676692,861.543527163197,861.1387320705107,0.2087288940971448,0.30199741502566213,0.1920025849743379,0.35471955247342524,2067.552571171329,5485.820336820348
2.166528822055138,861.7890287810407,861.3832356405218,0.209018547624577,0.30210221209153026,0.19189778790846976,0.3547195524734271,2067.3687735944504,5490.948855478015
2.171749373433584,862.0355219475307,861.6287215657368,0.20931097256928047,0.3022080118601823,0.1917919881398177,0.35471955247342907,2067.1832174345386,5496.070032746541
2.17696992481203,862.2830158583473,861.8751990115725,0.20960619655608392,0.30231482432632134,0.19168517567367868,0.354719552473431,2066.995885162455,5501.183901526969
2.1821904761904767,862.5315197633673,862.1226771961656,0.20990424734741908,0.30242265953443526,0.1915773404655647,0.35471955247343295,2066.806759161748,5506.290494628989
2.1874110275689227,862.7810429681407,862.371165391848,0.21020515284758431,0.3025315275803398,0.19146847241966017,0.3547195524734349,2066.6158217259426,5511.389844772122
2.1926315789473687,863.0315948353973,862.6206729266441,0.2105089411071234,0.30264143861276227,0.19135856138723772,0.3547195524734369,2066.423055055768,5516.481984586916
2.1978521303258147,863.283184786573,862.8712091857861,0.21081564032725114,0.30275240283494304,0.19124759716505696,0.35471955247343895,2066.228441256345,5521.566946616136
2.2030726817042607,863.5358223033124,863.1227836132219,0.21112527886414495,0.30286443050618816,0.1911355694938118,0.354719552473441,2066.031962334463,5526.6447633159605
2.208293233082707,863.7895169290322,863.3754057131612,0.21143788523348522,0.3029775319435122,0.19102246805648782,0.35471955247344306,2065.8336001957005,5531.715467057186
2.213513784461153,864.0442782704628,863.6290850516182,0.21175348811485678,0.3030917175232304,0.19090828247676964,0.3547195524734451,2065.633336641633,5536.779090126426
2.2187343358395992,864.3001159992064,863.883831257966,0.21207211635619655,0.3032069976825681,0.19079300231743188,0.3547195524734472,2065.4311533670066,5541.835664727319
2.2239548872180452,864.5570398533223,864.1396540265138,0.21239379897834043,0.3033233829213059,0.1906766170786941,0.35471955247344933,2065.2270319568584,5546.885222981741
2.2291754385964913,864.815059638906,864.3965631180847,0.21271856517949403,0.30344088380339684,0.19055911619660318,0.3547195524734515,2065.020953883675,5551.927796931019
2.2343959899749377,865.0741852316664,864.6545683615981,0.2130464443396851,0.30355951095857747,0.19044048904142252,0.35471955247345366,2064.8129005045694,5556.963418537144
2.2396165413533837,865.3344265785548,864.9136796556834,0.21337746602540722,0.3036792750840481,0.1903207249159519,0.3547195524734559,2064.6028530583353,5561.992119683998
2.2448370927318297,865.5957936993485,865.1739069702771,0.21371165999403263,0.30380018694606903,0.190199813053931,0.3547195524734581,2064.3907926626434,5567.0139321785755
2.250057644110276,865.8582966882809,865.4352603482448,0.21404905619840423,0.30392225738162226,0.19007774261837776,0.3547195524734604,2064.1767003111327,5572.028887752213
2.255278195488722,866.1219457156627,865.6977499070067,0.21438968479136453,0.30404549730004987,0.18995450269995012,0.35471955247346265,2063.960556870531,5577.037018061822
2.2604987468671682,866.3867510295022,865.9613858401622,0.21473357613024655,0.304169917684679,0.18983008231532103,0.3547195524734649,2063.74234307781,5582.038354691123
2.2657192982456142,866.6527229571482,866.226178419133,0.21508076078144128,0.3042955295944741,0.18970447040552593,0.35471955247346726,2063.522039537285,5587.0329291518865
2.2709398496240603,866.9198719069158,866.4921379947978,0.21543126952486918,0.304422344165655,0.18957765583434502,0.3547195524734696,2063.2996267177764,5592.020772885179
2.2761604010025067,867.1882083697504,866.7592749991518,0.21578513335858177,0.3045503726133617,0.18944962738663831,0.354719552473472,2063.075084949693,5597.001917262608
2.2813809523809527,867.4577429208591,867.0275999469513,0.21614238350320292,0.3046796262332611,0.1893203737667389,0.35471955247347436,2062.8483944222103,5601.976393587572
2.2866015037593987,867.7284862213651,867.2971234373733,0.21650305140644108,0.3048101164031797,0.18918988359682032,0.3547195524734768,2062.61953518041,5606.9442330965185
2.291822055137845,868.0004490199607,867.5678561556737,0.2168671687475766,0.304941854584727,0.18905814541527297,0.35471955247347925,2062.3884871224304,5611.905466960205
2.297042606516291,868.2736421545434,867.8398088748396,0.2172347674418433,0.3050748523248809,0.1889251476751191,0.35471955247348175,2062.1552299966884,5616.860126284956
2.3022631578947372,868.5480765539069,868.1129924572729,0.21760587964503955,0.3052091212576558,0.1887908787423442,0.35471955247348425,2061.919743398952,5621.808242113936
2.3074837092731832,868.8237632393827,868.387417856451,0.21798053775787832,0.3053446731056766,0.18865532689432343,0.3547195524734868,2061.6820067695794,5626.749845428414
2.3127042606516293,869.1007133264882,868.6630961185869,0.2183587744303548,0.3054815196817588,0.1885184803182412,0.35471955247348935,2061.44199939075,5631.684967149045
2.3179248120300753,869.3789380265956,868.9400383843057,0.21874062256618557,0.3056196728905148,0.18838032710948518,0.35471955247349196,2061.1997003836454,5636.6136381371425
2.3231453634085213,869.6584486485996,869.2182558903181,0.2191261153272081,0.3057591447299454,0.18824085527005457,0.3547195524734946,2060.955088705658,5641.535889195962
2.3283659147869677,869.9392566005599,869.4977599710836,0.2195152861376544,0.30589994729298625,0.18810005270701377,0.35471955247349723,2060.708143147681,5646.451751071987
2.3335864661654138,870.2213733913833,869.7785620604936,0.21990816868856958,0.30604209276910616,0.18795790723089384,0.35471955247349995,2060.4588423313016,5651.36125445622
2.33880701754386,870.5048106324616,870.0606736935318,0.2203047969420178,0.30618559344582924,0.18781440655417078,0.3547195524735027,2060.2071647061352,5656.264429985471
2.3440275689223062,870.7895800393493,870.3441065079559,0.22070520513543285,0.30633046171030853,0.18766953828969146,0.3547195524735054,2059.953088547062,5661.16130824366
2.3492481203007523,871.0756934334079,870.6288722459614,0.221109427785808,0.3064767100508423,0.18752328994915765,0.3547195524735082,2059.696591951571,5666.051919763111
2.3544686716791983,871.3631627434605,870.9149827558493,0.22151749969390241,0.3066243510583957,0.18737564894160436,0.354719552473511,2059.4376528370894,5670.936295025863
2.3596892230576443,871.6520000074745,871.2024499937123,0.22192945594854505,0.3067733974281577,0.18722660257184234,0.35471955247351383,2059.1762489382504,5675.81446446497
2.3649097744360903,871.9422052149247,871.491278831648,0.22234527846750957,0.3069238426179527,0.18707615738204733,0.3547195524735167,2058.9123917290026,5680.6864584223285
2.3701303258145368,872.233800168443,871.7814851804322,0.2227650501654294,0.3070757166264152,0.18692428337358477,0.35471955247351966,2058.6460285964567,5685.552307148924
2.3753508771929828,872.5268000351836,872.073083501429,0.22318881786841524,0.3072290363952999,0.18677096360470008,0.3547195524735226,2058.377129827439,5690.412040939168
2.380571428571429,872.8212175352501,872.3660868291004,0.2236166175040849,0.307383814923271,0.186616185076729,0.3547195524735256,2058.1056726243364,5695.265690046512
2.3857919799498752,873.1170654270405,872.6605081313659,0.22404848533381383,0.3075400653297466,0.1864599346702534,0.3547195524735286,2057.831633977752,5700.113284683665
2.3910125313283213,873.4143565302887,872.9563603589116,0.2244844579548003,0.3076978008556461,0.1863021991443539,0.35471955247353165,2057.5549906651954,5704.95485502331
2.3962330827067673,873.7131037436342,873.2536564824072,0.22492457230234458,0.3078570348642147,0.18614296513578535,0.35471955247353476,2057.275719249635,5709.790431198988
2.4014536340852133,874.0133200581016,873.5524095206766,0.22536886565229108,0.3080177808419068,0.18598221915809324,0.35471955247353787,2056.9937960779503,5714.6200433061085
2.4066741854636593,874.3150185675217,873.8526325621036,0.2258173756235964,0.3081800523993154,0.18581994760068457,0.35471955247354103,2056.7091972793014,5719.44372140307
2.4118947368421058,874.6182124766686,874.1543387809799,0.2262701401809954,0.3083438632721367,0.1856561367278633,0.3547195524735442,2056.4218987634363,5724.2614955124345
2.4171152882205518,874.9229151076913,874.4575414500733,0.22672719763774296,0.30850922732216174,0.18549077267783826,0.3547195524735475,2056.1318762189535,5729.073395622169
2.422335839598998,875.2291399052741,874.7622539503734,0.2271885866584172,0.3086761585382909,0.1853238414617091,0.35471955247355075,2055.8391051115204,5733.879451686925
2.427556390977444,875.5369004408492,875.0684897787281,0.22765434626176992,0.30884467103756513,0.18515532896243486,0.354719552473554,2055.543560682067,5738.679693629343
2.43277694235589,875.846210416103,875.37626255391,0.2281245158236166,0.3090147790662115,0.1849852209337885,0.3547195524735574,2055.2452179449515,5743.474151341389
2.4379974937343363,876.1570836659603,875.6855860215094,0.2285991350797585,0.3091864970007005,0.18481350299929955,0.3547195524735608,2054.944051686104,5748.2628546856995
2.4432180451127823,876.4695341611789,875.9964740579553,0.22907824412893119,0.30935983934881267,0.1846401606511873,0.35471955247356424,2054.640036461159,5753.045833496942
2.4484385964912283,876.7835760106584,876.3089406738892,0.22956188343577622,0.3095348207507141,0.18446517924928593,0.3547195524735677,2054.333146593567,5757.823117583191
2.4536591478696743,877.099223463537,876.6230000170556,0.23005009383383168,0.3097114559800379,0.1842885440199621,0.35471955247357123,2054.0233561726977,5762.594736727301
2.4588796992481203,877.416490911135,876.9386663748386,0.23054291652853998,0.3098897599449728,0.18411024005502719,0.3547195524735748,2053.710639051933,5767.360720688302
2.464100250626567,877.7353928887859,877.2559541765341,0.23104039310027016,0.31006974768935675,0.18393025231064328,0.3547195524735784,2053.3949688467455,5772.12109920278
2.469320802005013,878.0559440775866,877.5748779954309,0.23154256550735375,0.3102514343937747,0.1837485656062253,0.354719552473582,2053.0763189327768,5776.875901986278
2.474541353383459,878.3781593060916,877.8954525507502,0.23204947608913234,0.31043483537666183,0.18356516462333813,0.3547195524735857,2052.7546624438987,5781.625158734694
2.4797619047619053,878.7020535519678,878.2176927094836,0.23256116756901563,0.3106199660954097,0.18338003390459026,0.35471955247358944,2052.429972270278,5786.36889912568
2.4849824561403513,879.0276419436233,878.541613488159,0.23307768305754906,0.3108068421474761,0.18319315785252388,0.3547195524735932,2052.102221056425,5791.107152820047
2.4902030075187973,879.35493976182,878.8672300545558,0.23359906605549044,0.31099547927149823,0.18300452072850176,0.35471955247359704,2051.771381199246,5795.839949463175
2.4954235588972433,879.6839624412778,879.1945577293843,0.23412536045689397,0.31118589334840846,0.18281410665159156,0.35471955247360093,2051.4374248460813,5800.567318686418
2.5006441102756893,880.0147255722746,879.5236119879444,0.2346566105522013,0.31137810040255276,0.18262189959744726,0.35471955247360487,2051.1003238927474,5805.289290108519
2.505864661654136,880.3472449022485,879.8544084617694,0.2351928610313389,0.31157211660281126,0.18242788339718877,0.35471955247360887,2050.7600499815712,5810.005893337025
2.511085213032582,880.6815363374016,880.1869629402631,0.23573415698682038,0.3117679582637207,0.1822320417362793,0.35471955247361286,2050.41657449942,5814.717157969699
2.516305764411028,881.0176159443122,880.5212913723365,0.23628054391685377,0.31196564184659875,0.18203435815340127,0.3547195524736169,2050.069868575731,5819.423113595944
2.5215263157894743,881.355499951553,880.8574098680444,0.2368320677284525,0.3121651839606693,0.18183481603933074,0.3547195524736211,2049.7199030805373,5824.1237897982255
2.5267468671679203,881.6952047513189,881.1953347002285,0.23738877474054892,0.31236660136418914,0.18163339863581085,0.35471955247362524,2049.36664862249,5828.819216153491
2.5319674185463663,882.0367469010638,881.5350823061658,0.2379507116871105,0.3125699109655755,0.1814300890344245,0.35471955247362946,2049.0100755468848,5833.5094222346
2.5371879699248123,882.3801431251491,881.8766692892266,0.23851792572025685,0.31277512982453354,0.18122487017546648,0.35471955247363374,2048.6501539336805,5838.194437611755
2.5424085213032583,882.725410316502,882.2201124205404,0.23909046441337745,0.31298227515318444,0.18101772484681555,0.35471955247363807,2048.2868535955226,5842.874291853934
2.547629072681705,883.0725655382855,882.5654286406736,0.23966837576424863,0.3131913643171933,0.1808086356828067,0.3547195524736425,2047.9201440757658,5847.549014530324
2.552849624060151,883.4216260255796,882.9126350613163,0.2402517081981492,0.3134024148368961,0.1805975851631039,0.35471955247364695,2047.5499946464945,5852.2186352117615
2.558070175438597,883.7726091870742,883.2617489669815,0.2408405105709738,0.3136154443884263,0.18038455561157368,0.35471955247365144,2047.1763743065499,5856.883183472173
2.5615505430242274,884.0076747899307,883.4955598991767,0.24123610866376077,0.3137585723515293,0.18024142764847068,0.3547195524736545,2046.9253503624725,5859.990078907187
2.5650309106098583,884.2436079798401,883.7302315749414,0.24163417445008745,0.3139025931297301,0.18009740687026984,0.35471955247365755,2046.6727605610859,5863.094741844126
2.568511278195489,884.480414045714,883.9657692458181,0.24203472272871362,0.31404751207724146,0.17995248792275853,0.3547195524736606,2046.4185955119428,5866.197181049767
2.57199164578112,884.7180983118885,884.2021781986222,0.24243776838550318,0.3141933345797905,0.17980666542020954,0.3547195524736637,2046.1628457693246,5869.297405292457
2.5754720133667504,884.9566661383531,884.439463755671,0.2428433263938309,0.3143400660547658,0.17965993394523422,0.3547195524736669,2045.905501831983,5872.395423342298
2.5789523809523813,885.196122920981,884.6776312750162,0.24325141181498952,0.31448771195136493,0.17951228804863503,0.35471955247367004,2045.6465541428827,5875.491243971341
2.5824327485380123,885.4364740917608,884.9166861506754,0.24366203979859485,0.31463627775074093,0.17936372224925906,0.35471955247367326,2045.385993088943,5878.584875953773
2.5859131161236424,885.6777251190287,885.1566338128648,0.24407522558299125,0.3147857689661488,0.17921423103385117,0.3547195524736765,2045.1238090007812,5881.67632806612
2.5893934837092734,885.9198815077013,885.3974797282341,0.24449098449565565,0.3149361911430919,0.17906380885690806,0.3547195524736797,2044.8599921524567,5884.7656090874325
2.5928738512949043,886.1629487995107,885.6392294001013,0.24490933195360037,0.3150875498594677,0.17891245014053234,0.354719552473683,2044.594532761214,5887.85272779948
2.596354218880535,886.4069325732384,885.881888368689,0.24533028346377533,0.315239850725713,0.17876014927428702,0.3547195524736863,2044.327420987229,5890.937692986946
2.599834586466166,886.6518384449528,886.1254622113617,0.2457538546234692,0.3153930993849495,0.1786069006150505,0.35471955247368964,2044.0586469333534,5894.020513437622
2.6033149540517964,886.8976720682454,886.3699565428636,0.24618006112070862,0.31554730151312804,0.17845269848687195,0.354719552473693,2043.7882006448624,5897.1011979426
2.6067953216374273,887.1444391344695,886.6153770155585,0.24660891873465735,0.31570246281917286,0.17829753718082716,0.3547195524736964,2043.5160721092,5900.179755296471
2.610275689223058,887.3921453729785,886.8617293196689,0.2470404433360127,0.3158585890451252,0.1781414109548748,0.35471955247369985,2043.2422512557284,5903.256194297514
2.6137560568086884,887.640796551366,887.1090191835182,0.24747465088740161,0.3160156859662867,0.17798431403371326,0.3547195524737033,2042.9667279554772,5906.330523747899
2.6172364243943194,887.8903984757068,887.3572523737719,0.24791155744377463,0.3161737593913617,0.17782624060863825,0.3547195524737068,2042.6894920208917,5909.402752453877
2.6207167919799503,888.1409569907978,887.6064346956808,0.24835117915279825,0.31633281516259937,0.17766718483740065,0.3547195524737103,2042.4105332055858,5912.472889225978
2.624197159565581,888.3924779804012,887.8565719933254,0.24879353225524567,0.31649285915593484,0.17750714084406513,0.35471955247371384,2042.1298412040928,5915.540942879208
2.627677527151212,888.6449673674873,888.1076701498598,0.2492386330853861,0.3166538972811305,0.17734610271886947,0.3547195524737174,2041.8474056516188,5918.606922233245
2.6311578947368424,888.8984311144785,888.3597350877583,0.24968649807137114,0.31681593548191544,0.17718406451808458,0.354719552473721,2041.5632161237977,5921.67083611264
2.6346382623224733,889.1528752234944,888.6127727690612,0.25013714373562035,0.3169789797361249,0.17702102026387515,0.35471955247372466,2041.2772621364459,5924.732693347008
2.6381186299081043,889.4083057365976,888.8667891956229,0.25059058669520384,0.3171430360558389,0.17685696394416114,0.35471955247372833,2040.9895331453206,5927.79250277123
2.641598997493735,889.6647287360394,889.1217904093594,0.25104684366222274,0.3173081104875199,0.17669188951248013,0.35471955247373205,2040.700018545877,5930.850273225654
2.6450793650793654,889.9221503445071,889.3777824924985,0.2515059314441881,0.3174742091121497,0.17652579088785034,0.35471955247373577,2040.4087076730293,5933.906013556289
2.6485597326649963,890.1805767253726,889.6347715678282,0.25196786694439605,0.3176413380453654,0.17635866195463462,0.35471955247373954,2040.1155898009115,5936.959732615007
2.652040100250627,890.4400140829389,889.892763798949,0.2524326671623016,0.3178095034375944,0.1761904965624056,0.35471955247374337,2039.8206541426412,5940.011439259742
2.655520467836258,890.7004686626909,890.1517653905239,0.25290034919388926,0.31797871147418866,0.17602128852581134,0.3547195524737472,2039.5238898500832,5943.061142354692
2.6590008354218884,890.9619467515442,890.4117825885313,0.2533709302320402,0.31814896837555756,0.17585103162444246,0.3547195524737511,2039.2252860136177,5946.1088507705135
2.6624812030075193,891.2244546780951,890.6728216805179,0.2538444275668983,0.3183202803973001,0.17567971960269993,0.35471955247375503,2038.9248316619073,5949.154573384533
2.6659615705931503,891.487998812871,890.9348889958519,0.25432085858623066,0.3184926538303357,0.17550734616966432,0.35471955247375897,2038.6225157616686,5952.198319080937
2.6694419381787804,891.7525855685818,891.1979909059771,0.25480024077578717,0.31866609500103393,0.1753339049989661,0.35471955247376297,2038.318327217444,5955.240096750978
2.6729223057644114,892.0182214003711,891.4621338246683,0.2552825917196556,0.31884061027134325,0.17515938972865672,0.35471955247376696,2038.0122548713762,5958.279915293183
2.676402673350042,892.2849128060681,891.7273242082861,0.2557679291006129,0.31901620603891806,0.17498379396108196,0.354719552473771,2037.7042875029854,5961.317783613546
2.679883040935673,892.5526663264387,891.9935685560329,0.2562562707004741,0.31919288873724466,0.17480711126275536,0.3547195524737751,2037.3944138289478,5964.353710625738
2.6833634085213034,892.8214885454386,892.2608734102097,0.25674763440043574,0.3193706648357659,0.17462933516423407,0.35471955247377923,2037.0826225028777,5967.387705251306
2.6868437761069344,893.091386090465,892.5292453564722,0.2572420381814172,0.3195495408400046,0.1744504591599954,0.3547195524737834,2036.7689021151116,5970.41977641988
2.6903241436925653,893.3623656326085,892.7986910240892,0.2577395001243962,0.3197295232916845,0.1742704767083155,0.3547195524737876,2036.4532411924938,5973.449933069375
2.693804511278196,893.6344338869059,893.0692170861993,0.258240038410741,0.31991061876885113,0.17408938123114892,0.3547195524737919,2036.135628198167,5976.478184146198
2.6972848788638264,893.9075976125914,893.3408302600692,0.25874367132253767,0.3200928338859896,0.17390716611401044,0.35471955247379616,2035.8160515313646,5979.504538605453
2.700765246449457,894.1818636133485,893.6135373073524,0.2592504172429128,0.32027617529414176,0.17372382470585826,0.3547195524738005,2035.4944995272044,5982.529005411141
2.704245614035088,894.4572387375609,893.8873450343466,0.2597602946563511,0.320460649681021,0.173539350318979,0.3547195524738049,2035.1709604564885,5985.551593536376
2.7094661654135344,894.8723961218793,894.300135398641,0.26053102301108827,0.3207395003163763,0.17326049968362367,0.3547195524738115,2034.6819002841926,5990.081972850026
2.7146867167919804,895.2900880105223,894.7154410316774,0.261308902226778,0.32102093814358423,0.1729790618564158,0.3547195524738182,2034.1883025841569,5994.608175701409
2.7199072681704264,895.7103380901535,895.1332854776551,0.26209399598076294,0.3213049862011995,0.1726950137988005,0.35471955247382503,2033.6901269503783,5999.130232496363
2.7251278195488724,896.1331702800154,895.5536925133293,0.2628863684711247,0.32159166771618114,0.17240833228381885,0.3547195524738319,2033.1873326464224,6003.648173692074
2.7303483709273184,896.5586087337763,895.9766861499676,0.2636860844188147,0.32188100610466314,0.17211899389533686,0.3547195524738389,2032.6798786040727,6008.162029798665
2.735568922305765,896.9866778413526,896.4022906353002,0.26449320906970275,0.3221730249726957,0.17182697502730435,0.354719552473846,2032.1677234220276,6012.671831380772
2.740789473684211,897.4174022306952,896.8305304554613,0.26530780819653554,0.3224677481169538,0.1715322518830462,0.35471955247385323,2031.6508253646612,6017.177609059145
2.746010025062657,897.8508067695332,897.2614303369184,0.2661299481007977,0.3227651995254108,0.17123480047458925,0.35471955247386056,2031.1291423608395,6021.679393512234
2.7512305764411034,898.2871612650632,897.6950191958948,0.2669607094894458,0.32306540328409417,0.17093459671590586,0.3547199193891829,2030.6019886556828,6026.177216034959
2.7564511278195494,898.72712234225,898.1315253478593,0.2678024076142283,0.3233683832319339,0.1706316167680661,0.35472146704232727,2030.0678951227314,6030.671112093562
2.7616716791979954,899.170922345923,898.5713145462246,0.26865532459491964,0.3236741636776857,0.1703258363223143,0.354724273195881,2029.526682744898,6035.161120506971
2.7668922305764414,899.618729240752,899.0146769305345,0.2695196172159102,0.3239827697392885,0.17001723026071147,0.3547283694567249,2028.9782520357671,6039.647281394419
2.7703725981620724,899.9195645766907,899.3123533988364,0.2701022120197236,0.32419008960641893,0.16980991039358106,0.3547318332336676,2028.6085706643987,6042.635938097202
2.7738529657477033,900.222282252843,899.6117796639841,0.27068998398115024,0.32439868452663845,0.16960131547336155,0.3547358950606462,2028.2356041646467,6045.622915486224
2.777333333333334,900.526917097848,899.9130068035215,0.2712829833024701,0.3246085623762784,0.1693914376237216,0.35474056522458697,2027.8593206810126,6048.608226134054
2.7808137009189644,900.8335017067201,900.2160805109221,0.27188126104099747,0.32481973112112206,0.16918026887887794,0.354745854232317,2027.4796878154425,6051.591882753102
2.7842940685045954,901.1420669148813,900.5210421558214,0.27248486907277353,0.32503219880931866,0.1689678011906813,0.354751772804514,2027.0966726503648,6054.573898184523
2.787774436090226,901.4526421846828,900.8279296476632,0.27309386006450515,0.3252459735656196,0.1687540264343804,0.3547583318713172,2026.7102417664973,6057.554285389444
2.7912548036758564,901.7652559206823,901.1367781392986,0.2737082874522426,0.3254610635866886,0.16853893641331144,0.35476554256930354,2026.3203612563755,6060.533057442089
2.7947351712614874,902.0799357269284,901.4476206003039,0.27432820542556086,0.32567747713728173,0.1683225228627183,0.3547734162395835,2025.9269967343919,6063.510227524444
2.798215538847118,902.3967086170356,901.760488284257,0.2749536689162352,0.3258952225471307,0.1681047774528693,0.3547819644268212,2025.530113343981,6066.48580892219
2.8016959064327485,902.715601185834,902.0754111097143,0.2755847335905872,0.3261143082083925,0.1678856917916075,0.35479119887901567,2025.1296757624757,6069.459815021653
2.8051762740183794,903.0366397497359,902.3924179709605,0.27622145584482294,0.3263347425735523,0.16766525742644767,0.3548011315479106,2024.7256482040666,6072.432259307595
2.8086566416040104,903.3598504616348,902.7115369916189,0.2768638928028074,0.32655653415368696,0.167443465846313,0.35481177458992635,2024.317994421213,6075.403155361684
2.812137009189641,903.6852594050622,903.0327957317759,0.27751210231581913,0.32677969151701086,0.16722030848298913,0.35482314036752494,2023.9066777047992,6078.372516861525
2.815617376775272,904.0128926714439,903.3562213572901,0.2781661429639062,0.32700422328763956,0.16699577671236046,0.3548352414509371,2023.4916608832746,6081.340357580147
2.8190977443609024,904.3427764235728,903.6818407783448,0.27882607405852694,0.32723013814451524,0.16676986185548479,0.354848090620192,2023.0729063209765,6084.306691385856
2.8225781119465334,904.67493694783,904.0096807629852,0.279491955646215,0.3274574448204472,0.16654255517955283,0.3548617008674034,2022.650375915806,6087.271532242403
2.8260584795321644,905.0094006971977,904.3397680303107,0.2801638485130402,0.3276861521012237,0.16631384789877626,0.35487608539927107,2022.2240310963969,6090.234894209389
2.829538847117795,905.346194326717,904.6721293271246,0.28084181418967485,0.3279162688247584,0.16608373117524164,0.35489125763976787,2021.7938328189005,6093.196791442887
2.8330192147034254,905.6853447227188,905.0067914911297,0.28152591495689255,0.32814780388023385,0.16585219611976615,0.35490723123298523,2021.3597415634963,6096.157238196221
2.8364995822890564,906.0268790268876,905.343781503177,0.28221621385134454,0.3283807662072089,0.1656192337927911,0.35492402004611606,2020.9217173307281,6099.11624882089
2.839979949874687,906.370824655998,905.6831265306132,0.28291277467146747,0.3286151647946524,0.1653848352053476,0.35494163817255847,2020.4797196377538,6102.073837767592
2.843460317460318,906.717209317978,906.0248539633781,0.2836156619833815,0.32885100867986766,0.16514899132013233,0.3549600999351248,2020.0337075146024,6105.030019587353
2.8469406850459484,907.0660610247965,906.3689914441943,0.2843249411266327,0.3290883069472662,0.16491169305273382,0.35497941988934595,2019.5836395005317,6107.984808932714
2.8504210526315794,907.4174081025384,906.7155668939405,0.28504067821962953,0.32932706872694556,0.16467293127305446,0.3549996128268605,2019.1294736405785,6110.938220558978
2.8539014202172104,907.7712791989112,907.064608533081,0.2857629401646059,0.32956730319301886,0.16443269680698117,0.35502069377888035,2018.6711674824076,6113.890269325501
2.8573817878028405,908.1277032883202,907.4161448998645,0.2864917946519259,0.3298090195616354,0.16419098043836464,0.35504267801972805,2018.2086780735822,6116.840970197007
2.8608621553884714,908.4867096745498,907.7702048658576,0.28722731016351516,0.3300522270886203,0.1639477729113797,0.3550655810704384,2017.7419619593854,6119.790338244919
2.864342522974102,908.848327990987,908.1268176492662,0.28796955597516666,0.33029693506664615,0.16370306493335388,0.35508941870242106,2017.2709751813577,6122.7383886487005
2.867822890559733,909.212588198228,908.4860128264064,0.2887186021574255,0.33054315282183366,0.16345684717816633,0.35511420694118007,2016.7956732767352,6125.68513669717
2.871303258145364,909.5795205787985,908.8478203416013,0.2894745195746921,0.33079088970965487,0.16320911029034518,0.35513996207008613,2016.316011279019,6128.630597789807
2.874783625730995,909.949155728604,909.2122705157199,0.290237379882113,0.3310401551099846,0.16295984489001544,0.3551667006342002,2015.8319437199473,6131.574787438015
2.8782639933166254,910.3215245445931,909.5793940535171,0.29100725551973344,0.3312909584211146,0.16270904157888538,0.3551944394441438,2015.343424633207,6134.517721266317
2.881744360902256,910.6966582079656,909.9492220498856,0.29178421970327084,0.33154330905249907,0.16245669094750095,0.35522319558001564,2014.8504075602873,6137.459415013481
2.8852247284878865,911.074588162069,910.3217859950903,0.29256834641072255,0.33179721641594984,0.16220278358405016,0.3552529863953502,2014.352845558979,6140.3998845335445
2.8887050960735174,911.4553460839179,910.6971177790176,0.293359710363845,0.3320526899149362,0.1619473100850638,0.35528382952111803,2013.8506912151247,6143.3391457966945
2.8921854636591484,911.838963847996,911.0752496944425,0.29415838700331737,0.3323097389315601,0.16169026106843995,0.3553157428697643,2013.3438966583808,6146.277214889988
2.895665831244779,912.225473480684,911.45621443928,0.2949644524561272,0.3325683728106813,0.1614316271893187,0.35534874463928345,2012.8324135829105,6149.21410801786
2.89914619883041,912.6149071032559,911.840045117761,0.2957779834933729,0.3328286008405413,0.16117139915945874,0.35538285331732883,2012.3161932741623,6152.149841502364
2.9026265664160404,913.0072968608977,912.2267752404431,0.29659905747624876,0.3330904322290788,0.16090956777092122,0.35541808768535366,2011.7951866431426,6155.084431783093
2.9061069340016714,913.4026748345985,912.6164387229323,0.2974277522874499,0.33335387607494144,0.1606461239250586,0.3554544668227824,2011.2693442699435,6158.017895416682
2.9095873015873024,913.8010729320156,913.0090698831602,0.29826414624456876,0.3336189413319534,0.16038105866804656,0.35549201011120923,2010.7386164586965,6160.950249075825
2.913067669172933,914.2025227524865,913.4047034370227,0.29910831799123194,0.33388563676550526,0.16011436323449477,0.3555307372386217,2010.2029533066493,6163.881509547665
2.9165480367585634,914.6070554202157,913.8033744921371,0.2999603463606963,0.3341539708989554,0.15984602910104462,0.35557066820364785,2009.6623047907228,6166.811693731425
2.920028404344194,915.0147013782298,914.2051185394206,0.3008203102053396,0.33442395194767266,0.15957604805232736,0.3556118233198234,2009.1166208757031,6169.7408186351
2.923508771929825,915.4254901339324,914.6099714421074,0.30168828818388566,0.33469558773776703,0.15930441226223296,0.3556542232198786,2008.5658516492595,6172.668901370989
2.926989139515456,915.839449944889,915.0179694217215,0.3025643584962093,0.3349688856058385,0.15903111439416154,0.3556978888600415,2008.0099474902197,6175.595959149807
2.9304695071010864,916.2566074307575,915.4291490403562,0.30344859855309425,0.3352438522751753,0.15875614772482471,0.3557428415243575,2007.4488592781236,6178.522009273026
2.933949874686717,916.6769870939163,915.8435471783794,0.3043410845652403,0.33552049370272236,0.15847950629727767,0.35578910282902326,2006.8825386540166,6181.447069123058
2.9374302422723475,917.1006107272007,916.2612010063217,0.3052418910320074,0.3357988148897601,0.15820118511023995,0.35583669472673485,2006.3109383448614,6184.371156150751
2.9409106098579785,917.5274966820665,916.6821479491459,0.3061510901056921,0.33607881964753744,0.15792118035246258,0.3558856395110486,2005.7340125669339,6187.294287859581
2.9443909774436094,917.9576589642866,917.1064256402263,0.3070687508013612,0.33636051030701586,0.15763948969298414,0.3559359598207543,2005.1517175272163,6190.216481785768
2.94787134502924,918.3911061167432,917.5340718610042,0.3079949380152479,0.33664388735934286,0.15735611264065716,0.3559876786442557,2004.5640120462674,6193.137755473348
2.951351712614871,918.8278398398338,917.9651244601469,0.30892971130623365,0.3369289490106091,0.15707105098939092,0.3560408193239516,2003.9708583314243,6196.058126443037
2.9548320802005015,919.2678532892902,918.3996212426931,0.30987312338484185,0.3372156906308016,0.1567843093691984,0.35609540556059877,2003.3722229356013,6198.977612153421
2.9583124477861324,919.71112897877,918.8375998144546,0.3108252182423715,0.33750410407261117,0.15649589592738886,0.35615146141762216,2002.7680779444336,6201.89622995272
2.9617928153717634,920.157636200538,919.2790973588466,0.31178602883936213,0.3377941768309239,0.1562058231690761,0.3562090113253066,2002.1584024430458,6204.813997018916
2.965273182957394,920.6073278623652,919.7241503108653,0.3127555742579145,0.3380858910085719,0.1559141089914281,0.3562680800847516,2001.5431843230278,6207.7309302856465
2.9687535505430245,921.0601366234656,920.1727938739145,0.31373385620736993,0.3383792220485713,0.1556207779514287,0.35632869287138325,2000.9224224997292,6210.647046350672
2.972233918128655,921.5159701988069,920.6250612965274,0.3147208547592579,0.33867413718830136,0.15532586281169863,0.35639087523767277,2000.2961296186184,6213.562361363127
2.975714285714286,921.9747056928101,921.0809827834897,0.31571652317833426,0.3389705935880195,0.1550294064119805,0.3564546531144838,1999.6643353352106,6216.476890885115
2.979194653299917,922.4361828257441,921.5405838540187,0.31672078171703144,0.33926853608664687,0.15473146391335316,0.3565200528101096,1999.0270902527557,6219.390649722513
2.982675020885548,922.9001959373645,922.0038828720978,0.3177335102586178,0.33956789454481323,0.1544321054551868,0.35658710100551294,1998.3844705904673,6222.303651719266
2.9861553884711785,923.366484704709,922.4708873547304,0.3187545397414224,0.33986858075299836,0.15413141924700166,0.35665582474345653,1997.7365836252213,6225.215909508952
2.9896357560568094,923.8347236110916,922.9415885097438,0.3197836423886739,0.3401704849171598,0.15382951508284023,0.35672625140801695,1997.0835738911412,6228.127434217445
2.9931161236424395,924.3045103721222,923.4159532717249,0.3208205209262422,0.34047347179298315,0.15352652820701682,0.3567984086892976,1996.4256300214024,6231.038235111015
2.9965964912280705,924.7753537850496,923.893912917389,0.3218647972167371,0.34077737663119234,0.15322262336880765,0.35687232452591905,1995.7629919603853,6233.948319185968
3.0000768588137015,925.2466618390248,924.3753472085956,0.3229160010927323,0.34108200122734056,0.15291799877265944,0.35694802701507206,1995.0959580494716,6236.857690699136
3.003557226399332,925.7177314097057,924.860063041997,0.32397356063975163,0.3413871105419213,0.15261288945807872,0.357025544276777,1994.4248911929071,6239.766350643947
3.007037593984963,926.1877414310688,925.3477669516271,0.3250367957332435,0.3416924305598461,0.1523075694401539,0.35710490425607433,1993.7502229588683,6242.674296184838
3.0105179615705935,926.655752000311,925.8380317366367,0.3261049171871358,0.34199764826015183,0.15200235173984813,0.35718613444526287,1993.0724541197399,6245.581520073632
3.0139983291562245,927.1207122570356,926.3302591731932,0.32717703425706557,0.3423024147048228,0.15169758529517716,0.3572692615097573,1992.3921498909951,6248.48801008482
3.017478696741855,927.5814798324835,926.8236432479847,0.3282521732063259,0.3426063522362368,0.15139364776376316,0.35735431080782853,1991.7099281503058,6251.393748520787
3.0209590643274855,928.0368539017376,927.3171412588223,0.32932930889448353,0.342909066488139,0.15109093351186098,0.35744130580843747,1991.0264393932118,6254.298711850231
3.0244394319131165,928.4856221893274,927.8094625284109,0.33040740967307203,0.3432101632871012,0.15078983671289883,0.35753026743310257,1990.3423382448784,6257.20287054897
3.0279197994987475,928.9266197313219,928.299084932432,0.33148549331326405,0.34350926956835987,0.15049073043164016,0.3576212133747745,1989.658247971592,6260.106189207617
3.031400167084378,929.3587942437257,928.7843065562479,0.3325626887099254,0.3438060563256949,0.1501939436743051,0.3577141574725737,1988.9747213268934,6263.008626951835
3.034880534670009,929.7812704391845,929.2633331621047,0.3336382955889576,0.3441002606889059,0.14989973931109407,0.3578091092365173,1988.2922026647097,6265.91013818826
3.0383609022556395,930.1934045480721,929.7343931753585,0.3347118334224148,0.3443917038568578,0.14960829614314222,0.35790607361203347,1987.6109969006168,6268.8106736473055
3.0418412698412705,930.5948212776744,930.1958636780162,0.3357830719139746,0.34468030206065414,0.14931969793934588,0.3580050510464754,1986.931250167501,6271.710181652235
3.0453216374269005,930.985428394783,930.64638683701,0.3368520386509884,0.34496606894732723,0.14903393105267276,0.35810603787395456,1986.2529449600056,6274.608609512196
3.0488020050125315,931.3654081784464,931.0849581071861,0.3379190038714156,0.3452491094006627,0.1487508905993373,0.35820902698317053,1985.5759098005637,6277.505904923475
3.0522823725981625,931.7351889052779,931.5109745946786,0.3389844463770898,0.3455296063356018,0.14847039366439818,0.35831400869037916,1984.899840868892,6280.402017270218
3.055762740183793,932.0954022276846,931.924241224623,0.3400490072724849,0.345807802983373,0.148192197016627,0.35842097171687953,1984.2243313567253,6283.296898739655
3.059243107769424,932.4468333076028,932.3249405246265,0.34111343894153956,0.346083983450089,0.147916016549911,0.35852990417015784,1983.54890384421,6286.190505199658
3.0627234753550545,932.7903700389966,932.7135767825546,0.34217855574804507,0.3463584539785003,0.1476415460214997,0.3586407944454632,1982.873041582619,6289.082796820104
3.0662038429406855,933.1269561933372,933.0909066502007,0.343245191046429,0.34663152662855795,0.14736847337144207,0.35875363199168375,1982.196215772853,6291.973738447619
3.069684210526316,933.4575514895516,933.4578668125823,0.3443141629591786,0.3469035062933229,0.1470964937066771,0.3588684079136598,1981.5179072811316,6294.863299762646
3.0749047619047625,933.9442663955037,933.9911753929416,0.34592368889462727,0.34731005101310064,0.14668994898689938,0.359044192009181,1980.4965940954064,6299.194999134633
3.0801253132832085,934.4226205227637,934.5072467138995,0.3475425894114161,0.3477156536876777,0.14628434631232232,0.35922430988701337,1979.4693323360532,6303.5234697922015
3.0853458646616545,934.8953174427487,935.0097570316364,0.34917291010028906,0.3481210544242911,0.1458789455757089,0.35940876153761486,1978.4348239880765,6307.848666489934
3.0905664160401005,935.3647144038918,935.5021273452132,0.3508163609261471,0.34852685922506454,0.14547314077493545,0.3595975596266402,1977.3919840054627,6312.170562905046
3.0957869674185465,935.8328199290366,935.9874129463344,0.3524743468042608,0.3489335518479833,0.14506644815201672,0.35979072869648454,1976.339920909262,6316.489148941906
