z,T,t,fs,x,y,w,rhob,p
0.0,556.2446459565007,298.0,0.0,0.22647882856385154,0.26752117143614845,0.3547197226466026,2200.0,2040.0
0.002345720720720721,577.6788316972517,347.33675816949335,5.405968449593674e-07,0.22647902415257326,0.26752097584742673,0.3547197226466026,2199.9996569681334,2044.8769475671618
0.004691441441441442,596.6945704554681,390.73640353599706,2.2833699303313614e-06,0.22647965469040046,0.2675203453095995,0.3547197226466026,2199.998551103921,2050.028481931135
0.009382882882882883,628.7154205360496,463.0748513192744,1.3345179472137356e-05,0.22648365686911884,0.2675163431308812,0.3547197226466026,2199.991531911689,2061.0396559478054
0.014074324324324325,654.3189340307546,520.2793985776939,4.040709712363134e-05,0.22649344791013198,0.267506552089868,0.3547197226466026,2199.974359965142,2072.8295110033923
0.018765765765765767,674.9474140809223,565.9732649179566,8.781853535038301e-05,0.2265106014371713,0.2674893985628287,0.3547197226466026,2199.944275375669,2085.2324602330805
0.02345720720720721,691.6659898971997,602.7510730295583,0.0001569909994309531,0.22653562813489153,0.26746437186510846,0.3547197226466026,2199.9003824826755,2098.1142410801194
0.02814864864864865,705.2793303593102,632.5268476210522,0.00024742338412400396,0.22656834670269035,0.2674316532973096,0.3547197226466026,2199.842999258914,2111.366017436245
0.037531531531531534,725.5286734966702,676.5145692994431,0.00048564592252726713,0.22665453596221738,0.26734546403778264,0.3547197226466026,2199.6918368487595,2138.643466053593
0.04691441441441442,739.2089285921285,705.9914821937876,0.0007872800165988722,0.2267636676144548,0.2672363323855452,0.3547197226466026,2199.500437088896,2166.5409811479694
0.0562972972972973,748.5344734217131,725.9297412147215,0.0011378090806772366,0.22689048953767885,0.2671095104623211,0.3547197226466026,2199.278011375064,2194.7150973151306
0.06568018018018018,754.9415472701409,739.5103415931067,0.00152565524444758,0.2270308128416358,0.2669691871583642,0.3547197226466026,2199.0319063621732,2222.941428995879
0.07506306306306307,759.3789164296948,748.8154865657528,0.0019421815603090397,0.22718151266617065,0.26681848733382935,0.3547197226466026,2198.7676025636315,2251.0745772177397
0.08444594594594595,762.4809382332922,755.2288329931853,0.002381135929687497,0.22734032699296133,0.2666596730070387,0.3547197226466027,2198.4890672039305,2279.0216157063533
0.09382882882882883,764.6751433585326,759.6790496729366,0.0028380609833510324,0.22750564313936195,0.26649435686063805,0.3547197226466027,2198.199128674879,2306.7244815804906
0.10321171171171171,766.2511801178964,762.7935417786566,0.003309805292783601,0.2276763209139697,0.26632367908603033,0.3547197226466027,2197.8997866929303,2334.1482444084036
0.1125945945945946,767.4059487629764,764.9980079996772,0.0037941514257749135,0.2278515580465983,0.26614844195340165,0.35471972264660273,2197.592448313856,2361.2732761740003
0.12197747747747748,768.2735875795802,766.5820867932082,0.0042895434841515815,0.22803079161103448,0.26596920838896554,0.35471972264660273,2197.278100821728,2388.090019838294
0.13136036036036036,768.9455970887998,767.7431826766807,0.004794891405566211,0.22821362722114166,0.26578637277885836,0.35471972264660273,2196.957435907822,2414.595493626012
0.14074324324324325,769.4844383119203,768.6159737184944,0.00530943196962372,0.2283997887426752,0.2656002112573248,0.3547197226466028,2196.630937868189,2440.7909567707943
0.15012612612612614,769.9327632431401,769.2923917166017,0.005832630756558766,0.22858908282178972,0.26541091717821025,0.3547197226466028,2196.2989458150737,2466.6803532935087
0.15950900900900902,770.3196990889496,769.8352021335139,0.006364113303839799,0.22878137397739876,0.2652186260226012,0.3547197226466028,2195.9616973610005,2492.2692772266723
0.1688918918918919,770.6651346908947,770.2872563257813,0.006903616915377197,0.22897656716567655,0.26502343283432345,0.35471972264660284,2195.6193591978968,2517.564287311831
0.18296621621621623,771.1339483209103,770.8565099184506,0.0077275235811954225,0.22927465779103137,0.2647253422089686,0.3547197226466029,2195.0965551081495,2554.9712511866246
0.19704054054054054,771.5680156191384,771.3478637371226,0.00856866523121798,0.2295789840586411,0.26442101594135886,0.3547197226466029,2194.5628146822824,2591.7574629275596
0.2251891891891892,772.3901988164395,772.2224186995905,0.010301781919554201,0.23020602818739078,0.2637939718126092,0.354719722646603,2193.4630778671035,2663.564675149887
0.25333783783783786,773.194320201186,773.045806568411,0.012101987614603632,0.2308573452159667,0.2631426547840333,0.35471972264660306,2192.320770201922,2733.1703266709524
0.2814864864864865,774.000075657896,773.860391867208,0.013968969080899831,0.23153282181532328,0.2624671781846767,0.3547197226466032,2191.1360904480657,2800.7402797708423
0.3096351351351352,774.8137291786467,774.6795864903688,0.015902685655161425,0.23223244327342646,0.26176755672657354,0.3547197226466033,2189.909064408129,2866.421745555314
0.3377837837837838,775.6373107531368,775.5076666087759,0.017903236536463824,0.23295624548064534,0.2610437545193547,0.3547197226466034,2188.639629136048,2930.3453406934095
0.36593243243243245,776.4715259249305,776.3460427265242,0.01997081272243663,0.23370429754019906,0.26029570245980094,0.3547197226466035,2187.3276634356403,2992.627376540759
0.3940810810810811,777.3166717518333,777.1952342942681,0.022105677495296627,0.23447669470797514,0.25952330529202483,0.3547197226466037,2185.973000243056,3053.371906644527
0.41284684684684686,777.886263295587,777.7674969064528,0.02356646180114521,0.2350052085861903,0.25899479141380966,0.35471972264660373,2185.0460699959535,3093.060663822216
0.4316126126126127,778.4608339947189,778.3447282397532,0.025057406640893932,0.2355446345892666,0.2584553654107334,0.35471972264660384,2184.100001597497,3132.133254853563
0.4503783783783784,779.040424776844,778.9269735082571,0.02657863340657011,0.2360950166370154,0.2579049833629846,0.35471972264660395,2183.1347180192424,3170.613467970642
0.4691441441441442,779.6250765975577,779.5142761905329,0.02813027359499535,0.2366564023051772,0.2573435976948228,0.35471972264660406,2182.1501358208216,3208.523607399047
0.48790990990990996,780.2148312159259,780.1066797380589,0.029712468366730256,0.23722884266584743,0.25677115733415257,0.3547197226466042,2181.146165429808,3245.884621401726
0.5066756756756757,780.8097315365987,780.7042283439032,0.03132536815131677,0.23781239214465227,0.2561876078553478,0.3547197226466043,2180.122711392212,3282.7162164551764
0.5254414414414414,781.4098217563742,781.3069672849836,0.03296913229057321,0.2384071083916924,0.25559289160830756,0.3547197226466044,2179.079672598819,3319.036959337252
0.5442072072072072,782.0151474235331,781.9149430719118,0.03464392871429593,0.23901305216421148,0.2549869478357885,0.3547197226466045,2178.0169424909773,3354.86436865011
0.562972972972973,782.6257554591341,782.5282035128242,0.036349933644149145,0.23963028721946292,0.25436971278053705,0.3547197226466047,2176.9344092484885,3390.214997083516
0.5817387387387387,783.2416941625427,783.1467977394403,0.038087331322374435,0.24025888021655664,0.2537411197834434,0.3547197226466048,2175.831955961754,3425.10450553887
0.6005045045045044,783.8630132112684,783.7707762171651,0.03985631376250695,0.24089890062626784,0.25310109937373215,0.35471972264660495,2174.7094607899567,3459.547730078194
0.6192702702702703,784.4897636597204,784.4001907490738,0.0416570805196806,0.2415504206479331,0.25244957935206686,0.3547197226466051,2173.5667971068115,3493.5587425304375
0.6380360360360361,785.1219979391061,785.0350944782436,0.043489838478408725,0.24221351513266906,0.2517864848673309,0.35471972264660523,2172.403833635229,3527.1509054757503
0.6568018018018019,785.7597698597665,785.6755418905177,0.04535480165597164,0.24288826151223783,0.25111173848776214,0.3547197226466054,2171.220434572072,3560.336922233622
0.6755675675675676,786.403134617051,786.3215888187997,0.04725219101974752,0.24357473973295693,0.2504252602670431,0.3547197226466056,2170.0164597040693,3593.1288824000667
0.6943333333333334,787.0521488021002,786.9732924496697,0.049182234316999224,0.24427303219411603,0.24972696780588396,0.3547197226466058,2168.791764515822,3625.538303410142
0.7130990990990992,787.7068704196038,787.6307113331676,0.05114516591578313,0.2449832236904175,0.24901677630958252,0.35471972264660595,2167.5462002907534,3657.5761685430903
0.7318648648648649,788.3673589158491,788.2939053969494,0.05314122665578412,0.2457054013580082,0.2482945986419918,0.3547197226466062,2166.2796142057628,3689.2529617367773
0.7506306306306306,789.0336752224565,788.9629359666922,0.05517066370800762,0.24643965462371603,0.24756034537628396,0.35471972264660634,2164.9918494202534,3720.5786995345366
0.7693963963963965,789.7058818246552,789.6378657957605,0.057233730442381704,0.24718607515714805,0.24681392484285194,0.35471972264660656,2163.682745160147,3751.562960450097
0.7881621621621622,790.3840428686683,790.3187591090142,0.0593306863024489,0.24794475682535383,0.24605524317464617,0.3547197226466068,2162.352136797397,3782.2149120040817
0.8069279279279279,791.0682243323035,791.0056816686769,0.06146179668646839,0.248715795649808,0.245284204350192,0.354719722646607,2160.999855925435,3812.5433356580734
0.8256936936936938,791.7584942988128,791.6987008751946,0.06362733283442518,0.24949928976553015,0.24450071023446987,0.3547197226466073,2159.625730430864,3842.5566498490793
0.8444594594594595,792.4549234009959,792.3978859242618,0.06582757172068225,0.250295339382246,0.24370466061775392,0.3547197226466075,2158.229584561582,3872.262931308313
0.8632252252252254,793.1575855481724,793.1033080549033,0.0680627959523649,0.2511040467476231,0.2428959532523769,0.3547197226466078,2156.8112389912553,3901.669934833838
0.8819909909909911,793.8665591265325,793.8150409464114,0.0703332936741143,0.25192551611280994,0.2420744838871901,0.35471972264660806,2155.37051087976,3930.7851116776856
0.9007567567567568,794.5819289970041,794.5331613604786,0.07263935848073512,0.25275985370083215,0.24124014629916785,0.35471972264660834,2153.90721392861,3959.615626706506
0.9195225225225226,795.3037898452496,795.2577501902333,0.07498128934072638,0.25360716767892594,0.24039283232107406,0.35471972264660867,2152.4211584294803,3988.1683745039886
0.9382882882882884,796.0322518376717,795.9888941897327,0.07735939053615139,0.2544675681367826,0.2395324318632174,0.35471972264660895,2150.91215130236,4016.449994609642
0.9570540540540541,796.7674502311219,796.7266888510412,0.07977397162850873,0.2553411670742008,0.23865883292579917,0.3547197226466093,2149.3799961172126,4044.4668861429705
0.9758198198198199,797.5095617906925,797.4712432361831,0.08222534746753354,0.2562280784042709,0.23777192159572907,0.3547197226466096,2147.824493088387,4072.2252221639724
0.9945855855855856,798.2588329620206,798.2226881817602,0.08471383827260477,0.25712841798282815,0.23687158201717184,0.35471972264661,2146.245439022963,4099.730964303547
1.0133513513513515,799.0156283347662,798.9811904226681,0.08723976983921818,0.25804230368315484,0.23595769631684518,0.3547197226466104,2144.642627189737,4126.989878517177
1.0321171171171173,799.7805139532144,799.7469773532864,0.08980347396478063,0.25896985555003343,0.23503014444996653,0.3547197226466108,2143.0158470490337,4154.007553364698
1.050882882882883,800.5543996357137,800.5203815331918,0.09240528926739346,0.25991119609598373,0.23408880390401623,0.35471972264661117,2141.3648837331557,4180.789423138567
1.0696486486486487,801.3387782134363,801.3019233446306,0.09504556272881957,0.2608664508595102,0.23313354914048978,0.35471972264661156,2139.689517067304,4207.340799632268
1.0884144144144143,802.136114248873,802.0924703925292,0.09772465261890609,0.26183574946316257,0.23216425053683745,0.354719722646612,2137.9895197139062,4233.666918473734
1.1071801801801804,802.950434072217,802.8935542988478,0.10044293414736856,0.26281922765835947,0.23118077234164056,0.3547197226466125,2136.2646535863173,4259.773008400415
1.125945945945946,803.7881043320825,803.7079976677837,0.10320081058168197,0.2638170313478576,0.23018296865214236,0.35471972264661294,2134.5146627940408,4285.6643927320165
1.1447117117117118,804.6585619413698,804.5410557225736,0.10599873489893673,0.26482932441942464,0.22917067558057536,0.35471972264661344,2132.7392599037003,4311.346626162913
1.1634774774774774,805.5743122585001,805.4020432294559,0.10883724891837401,0.265856302904047,0.22814369709595306,0.354719722646614,2130.9381011077667,4336.825647113694
1.1822432432432433,806.5491588397811,806.3054114093621,0.11171704201581563,0.2668982162188956,0.22710178378110438,0.3547197226466145,2129.1107489677356,4362.107881843069
1.2010090090090089,807.5943384449442,807.268905209635,0.11463901079178529,0.2679553887553391,0.2260446112446609,0.3547197226466151,2127.2566345521495,4387.2002002218305
1.219774774774775,808.7143793448948,808.3076427830189,0.1176042742767044,0.2690282253802051,0.2249717746197949,0.3547197226466157,2125.3750477882477,4412.109663513781
1.2385405405405405,809.905720126341,809.4277237392665,0.12061410885328053,0.2701171878906064,0.22388281210939362,0.35471972264661633,2123.4651787565,4436.843138536701
1.2573063063063064,811.1590036318595,810.6247090254767,0.1236698252886299,0.27122275052398465,0.22277724947601532,0.35471972264661705,2121.526195718995,4461.406956013764
1.2760720720720722,812.4629412051714,811.8873666057452,0.12677265082615508,0.27234535729878095,0.22165464270121904,0.3547197226466178,2119.557319937198,4485.806745027909
1.294837837837838,813.807307419459,813.2027590349446,0.129923655968858,0.27348539552453227,0.2205146044754677,0.3547197226466185,2117.5578721310753,4510.047446171416
1.3136036036036038,815.1842533195518,814.5596169399396,0.13312371674304868,0.2746431821488268,0.21935681785117317,0.35471972264661933,2115.5272964243895,4534.133426245567
1.3323693693693694,816.5883697698101,815.9495425311759,0.13637347236311723,0.2758189484403569,0.21818105155964307,0.3547197226466202,2113.465187208215,4558.068617280816
1.3511351351351353,818.0161746781258,817.3668573092598,0.13967322202480012,0.2770128026485736,0.2169871973514264,0.3547197226466211,2111.3713546300346,4581.856636340257
1.369900900900901,819.4654598526694,818.8079130996215,0.14302267633357135,0.278224640070118,0.21577535992988203,0.3547197226466221,2109.2459823230774,4605.500871709934
1.3886666666666667,820.9346563926142,820.2703044425244,0.14642040818847243,0.27945394437779575,0.21454605562220427,0.35471972264662316,2107.0899758440632,4629.00453536829
1.4074324324324325,822.4221851064718,821.7520925838446,0.14986269537904606,0.2806993688704708,0.2133006311295292,0.35471972264662427,2104.90569709505,4652.370684172601
1.4261981981981984,823.9256204747583,823.2509371228092,0.15334116262593134,0.2819578833599364,0.21204211664006364,0.3547197226466255,2102.6984605497337,4675.602207293498
1.4449639639639642,825.4403704275103,824.7628775723033,0.15683822743742792,0.283223126475222,0.21077687352477795,0.35471972264662677,2100.479423052633,4698.701766949544
1.4637297297297298,826.9575323547328,826.2804293139937,0.1603192831312943,0.2844825774685553,0.20951742253144467,0.35471972264662815,2098.270544026774,4721.671665190583
1.4824954954954954,828.4610748295631,827.7899688582665,0.16372272230355733,0.2857139466919229,0.2082860533080771,0.3547197226466296,2096.110916010294,4744.513603279498
1.5012612612612612,829.9264078747491,829.2698367056245,0.16695670732810655,0.28688400715914525,0.2071159928408547,0.35471972264663115,2094.0588139128595,4767.228344651053
1.520027027027027,831.3248266036594,830.6928768989981,0.16992005041517014,0.2879561489812839,0.2060438510187161,0.35471972264663276,2092.1784457237,4789.815441729868
1.538792792792793,832.634746397224,832.0354500799709,0.17254679071000212,0.2889065074255286,0.20509349257447138,0.35471972264663454,2090.511666432045,4812.273329381684
1.5575585585585585,833.8504702493073,833.2867415630516,0.17483400312613256,0.28973402419135685,0.2042659758086431,0.35471972264663637,2089.0603321306207,4834.599888332768
1.5763243243243243,834.9804913365332,834.4501813701362,0.17682658662871148,0.2904549437894088,0.2035450562105912,0.3547197226466383,2087.7959525017986,4856.793142234244
1.5950900900900902,836.0399753179896,835.5380592252311,0.17858540516671356,0.291091286884602,0.202908713115398,0.35471972264664037,2086.679906761499,4878.851700828707
1.6138558558558558,837.0447097739145,836.5654370883108,0.18016688498909283,0.2916634685755575,0.20233653142444247,0.3547197226466425,2085.6763900364926,4900.774882596409
1.6326216216216218,838.0083491772358,837.5464640120817,0.18161643704176825,0.2921879186082994,0.2018120813917006,0.35471972264664475,2084.7565871354104,4922.562649442434
1.6513873873873877,838.9417867407273,838.4929593280559,0.18296868000596922,0.2926771620718514,0.20132283792814862,0.3547197226466471,2083.8985310213548,4944.215478726037
1.6701531531531533,839.8534200957831,839.4142582650909,0.18424961045449098,0.2931406045639142,0.2008593954360858,0.3547197226466495,2083.0857257547486,4965.734236141662
1.688918918918919,840.7496552924179,840.3175578112981,0.18547880738897865,0.2935853297956487,0.20041467020435128,0.3547197226466521,2082.305747619948,4987.120070836443
1.7076846846846847,841.6353899957976,841.208372094004,0.18667117732853739,0.29401673096726355,0.1999832690327365,0.3547197226466547,2081.549137791729,5008.374335231456
1.7264504504504508,842.5144023143079,842.090942972145,0.18783822766743927,0.294438971470678,0.19956102852932206,0.35471972264665746,2080.8085943352526,5029.498525698717
1.7452162162162164,843.3896424046848,842.9685650584688,0.18898897099438242,0.2948553120735403,0.1991446879264597,0.35471972264666035,2080.078398376736,5050.494239165096
1.7639819819819822,844.2634448181724,843.8438287548584,0.19013056473516454,0.2952683423428737,0.1987316576571263,0.35471972264666335,2079.3540082227637,5071.363141372624
1.7827477477477478,845.137681740035,844.718797643738,0.19126876672344348,0.29568014547123744,0.19831985452876258,0.35471972264666646,2078.631770281115,5092.106943534415
1.8015135135135136,846.0138739275211,845.5951371759489,0.19240826411948514,0.2960924172800063,0.1979075827199937,0.35471972264666973,2077.9087103477245,5112.727385027308
1.8202792792792792,846.8932793278452,846.4742129770682,0.1935529482830735,0.29650656566878797,0.19749343433121203,0.3547197226466731,2077.1823591880348,5133.22622050013
1.8296621621621623,847.3345738564791,846.9151708071165,0.19412850144010715,0.2967148016348526,0.19728519836514746,0.35471972264667484,2076.817146043333,5143.430586495047
1.8390450450450453,847.7775132818736,847.3575108821713,0.19470856022287344,0.2969246677428348,0.1970753322571652,0.35471972264667667,2076.449073886006,5153.605215176426
1.8453003003003003,848.0747153666715,847.6538424481239,0.19510201344726796,0.2970670196894478,0.19693298031055217,0.35471972264667784,2076.1994109528464,5160.371899168679
1.8484279279279279,848.2241880356903,847.802676282092,0.19530193803681123,0.2971393526955913,0.19686064730440875,0.35471972264667845,2076.0725502325845,5163.750351451891
1.8499917417417417,848.2988539546882,847.877120632331,0.19540131480958467,0.29717530735595576,0.19682469264404426,0.3547197226466788,2076.009491411255,5165.438359534316
1.8515555555555556,848.3725294043285,847.9510749226073,0.1954959164177417,0.2972095343548439,0.19679046564515615,0.35471972264667906,2075.949462636525,5167.125555257637
1.8523374624624624,848.4084283310342,847.9875535443612,0.19553881574434775,0.2972250553933616,0.1967749446066384,0.3547197226466792,2075.922241175251,5167.968847152572
1.8531193693693695,848.4433925705763,848.0235163257427,0.1955773943117651,0.297239013174945,0.19676098682505502,0.3547197226466794,2075.8977614208575,5168.811933573513
1.8546831831831834,848.5106235638145,848.0938532887452,0.1956423639297313,0.2972625192768517,0.19673748072314828,0.35471972264667967,2075.8565354138454,5170.497484407887
1.856246996996997,848.5756470995864,848.1626708655103,0.1956979631615781,0.2972826351594848,0.1967173648405152,0.35471972264668,2075.8212553184144,5172.182199054967
1.857810810810811,848.6397667308678,848.2305912043335,0.19575047648041485,0.29730163455432,0.19669836544568,0.35471972264668034,2075.7879333670417,5173.866073705478
1.8625022522522525,848.8302760370132,848.4309915916745,0.19590583550986987,0.2973578436762574,0.1966421563237426,0.3547197226466813,2075.6893514046087,5178.912651943101
1.867193693693694,849.0192752086058,848.6276247636159,0.19606212878446933,0.29741439080944154,0.19658560919055848,0.3547197226466822,2075.590176623592,5183.951667124174
1.8765765765765767,849.394486839969,849.0131404242856,0.1963782638894235,0.2975287689484232,0.19647123105157682,0.3547197226466841,2075.3895753508514,5194.007064505987
1.8953423423423423,850.1406086388077,849.7683481662868,0.19702415829074132,0.29776245447857674,0.19623754552142328,0.3547197226466881,2074.9797276720265,5214.027872563908
1.9141081081081082,850.8881981874885,850.5180148367447,0.19768876439469105,0.29800290992985157,0.19599709007014843,0.35471972264669216,2074.5580066159514,5233.92995936905
1.9328738738738738,851.6412317633268,851.2704487277874,0.19837313425696618,0.2982505159375218,0.19574948406247825,0.35471972264669643,2074.123744608201,5253.714999898067
1.9516396396396398,852.4014229865628,852.0289744145579,0.1990783998164368,0.2985056820387105,0.19549431796128952,0.3547197226467008,2073.6762233850504,5273.384732217543
1.9704054054054054,853.169642389586,852.7950607992505,0.19980571563901375,0.29876882595703697,0.19523117404296306,0.35471972264670537,2073.214710324947,5292.940902633523
1.9891711711711713,853.9464481274496,853.5694880617974,0.20055624461670207,0.29904036842851334,0.19495963157148663,0.3547197226467101,2072.738467523076,5312.385245881508
2.0079369369369373,854.7322837781553,854.3527821569351,0.20133115384967845,0.2993207317116745,0.1946792682883255,0.35471972264671503,2072.2467544043566,5331.7194782803845
2.026702702702703,855.527552119642,855.145376462125,0.20213161419784906,0.2996103394253308,0.19438966057466922,0.3547197226467201,2071.738828007999,5350.945295666476
2.0454684684684685,856.3326428195403,855.9476720162173,0.20295880121508458,0.29990961688657564,0.19409038311342433,0.35471972264672536,2071.213942394691,5370.064373084125
2.0642342342342346,857.1479430465603,856.7600601592761,0.20381389663273197,0.3002189916475226,0.19378100835247739,0.35471972264673085,2070.6713477052476,5389.078365118603
2.083,857.9738417805289,857.5829312751595,0.20469809009962225,0.30053889412484214,0.19346110587515786,0.3547197226467365,2070.1102890565,5407.988906462178
2.101765765765766,858.8107318177955,858.416678423328,0.20561258108055658,0.3008697582866372,0.19313024171336285,0.3547197226467424,2069.5300053366263,5426.797612563977
2.120531531531532,859.6590109524586,859.2616991116556,0.20655858088478,0.30121202238634737,0.19278797761365266,0.3547197226467485,2068.9297279179978,5445.506080309849
2.1392972972972975,860.5190828811429,860.118396411933,0.2075373148168963,0.3015661297409536,0.1924338702590464,0.3547197226467549,2068.30867929233,5464.11588871358
2.158063063063063,861.3913580328687,860.9871798608267,0.20855002444475326,0.301932529551502,0.192067470448498,0.35471972264676144,2067.6660716316137,5482.628599613544
2.1768288288288287,862.2762543972563,861.8684663085061,0.20959796997741428,0.3023116777634574,0.19168832223654259,0.3547197226467683,2067.001105279189,5501.045758373591
2.1955945945945947,863.1741983761021,862.7626807728657,0.2106824327426222,0.3027040379630535,0.19129596203694643,0.3547197226467754,2066.3129671776887,5519.3688945885
2.2143603603603608,864.0856256646643,863.6702573180683,0.2118047177482324,0.3031100823040232,0.1908899176959768,0.3547197226467828,2065.6008292437,5537.59952279483
2.2331261261261264,865.0109821622196,864.5916399615244,0.2129661563113606,0.3035302924588275,0.19046970754117246,0.3547197226467905,2064.863846699457,5555.739143188041
2.251891891891892,865.9507249082446,865.5272836074826,0.21416810873597997,0.3039651605874149,0.19003483941258512,0.3547197226467985,2064.1011563737893,5573.789242346631
2.2706576576576576,866.905323039351,866.4776550030847,0.2154119670186868,0.3044151903161704,0.18958480968382957,0.35471972264680685,2063.3118749851997,5591.751293963854
2.2894234234234236,867.8752587623981,867.4432337123557,0.21669915756519514,0.30488089772074806,0.18911910227925194,0.3547197226468155,2062.495097418131,5609.626759587445
2.3081891891891892,868.8610283387145,868.4245131031631,0.21803114389833275,0.30536281230582724,0.1886371876941728,0.3547197226468245,2061.6498950046266,5627.417089367537
2.326954954954955,869.8631430755547,869.4220013429834,0.21940942934334565,0.3058614779766598,0.18813852202334025,0.35471972264683393,2060.77531382039,5645.1237228128575
2.345720720720721,870.8821303210066,870.4362223995744,0.2208355596760582,0.30637745399717853,0.18762254600282147,0.3547197226468437,2059.870373004412,5662.748089555142
2.3644864864864865,871.9185261444446,871.4677123975886,0.22231108840894087,0.306911302430446,0.18708869756955396,0.35471972264685386,2058.9340867864526,5680.291610127872
2.383252252252252,872.9728582549853,872.5169977251062,0.22383753366099804,0.3074635725341174,0.18653642746588261,0.3547197226468645,2057.96549185494,5697.7556956219805
2.4020180180180177,874.0457580297557,873.5846900183661,0.2254167907105731,0.3080349500226431,0.1859650499773569,0.35471972264687557,2056.9633855745396,5715.14175027803
2.420783783783784,875.1378289610695,874.6713954625966,0.22705058803257586,0.3086260602607497,0.18537393973925034,0.3547197226468871,2055.9266711538435,5732.451172309888
2.43954954954955,876.2496924935253,875.7777332925966,0.2287407119101666,0.3092375495282724,0.18476245047172757,0.35471972264689916,2054.8542151196316,5749.685353992869
2.4583153153153154,877.3819914092934,876.9043422744105,0.2304890081090683,0.309870085625924,0.184129914374076,0.35471972264691176,2053.7448462544485,5766.845682421968
2.477081081081081,878.5353915770168,878.05188354135,0.23229738363959473,0.31052435851279875,0.18347564148720122,0.3547197226469249,2052.597354478521,5783.933540323218
2.50522972972973,880.3065732568031,879.8139489003676,0.23512692287247425,0.31154808990662164,0.18245191009337836,0.35471972264694573,2050.801890569292,5809.4324611432
2.5333783783783788,882.1292284743929,881.6270782163334,0.2381030131015678,0.3126248436631939,0.18137515633680612,0.354719722646968,2048.913433772208,5834.776070096358
2.5615270270270276,884.0059296003378,883.4938251487325,0.2412329215720675,0.31375724908235453,0.18024275091764547,0.3547197226469918,2046.9273727087416,5859.969004258085
2.589675675675676,885.9393919016384,885.4168855684816,0.2445242722981993,0.31494806454349594,0.17905193545650405,0.35471972264701734,2044.8388696151226,5885.015900007035
2.6178243243243244,887.9324812834544,887.3991053323923,0.24798506021748476,0.3162001826265962,0.17779981737340378,0.3547197226470447,2042.6428513608537,5909.9213996054
2.6459729729729733,889.9882223083234,889.4434883342082,0.25162366518526774,0.31751663517545914,0.17648336482454086,0.35471972264707413,2040.3340005685825,5934.6901578640945
2.664738738738739,891.3950917207479,890.8425039252922,0.25415250732154154,0.3184315739240853,0.1755684260759147,0.35471972264709495,2038.729341854168,5951.12900317165
2.683504504504505,892.8322097373788,892.2715351968839,0.2567669744773201,0.3193774919288193,0.1746225080711807,0.35471972264711676,2037.0703503952343,5967.510542501647
2.7022702702702706,894.3006007436567,893.7316000235618,0.2594698518124105,0.32035539686451436,0.17364460313548563,0.35471972264713975,2035.3552588885193,5983.836173041556
2.721036036036036,895.8013260634409,895.2237531518994,0.26226400905122976,0.32136632700162215,0.17263367299837787,0.35471972264716384,2033.5822463708926,6000.107298990857
2.739801801801802,897.3354851006973,896.7490873755999,0.26515240194184303,0.3224113517340747,0.1715886482659253,0.35471972264718926,2031.7494372935316,6016.325332498009
2.758567567567568,898.9061907078008,898.3091610719189,0.26814550180734764,0.3234915706231325,0.1705084293768675,0.35472241162582274,2029.8501871531605,6032.491705309389
2.7773333333333334,900.5264496128985,899.9125844718027,0.2712816199620102,0.3246081140234964,0.16939188597650365,0.3547405203173699,2027.8601857789631,6048.608067544209
2.796099099099099,902.2033172910035,901.5694984124885,0.27457124370216085,0.32576219154265557,0.16823780845734448,0.35477663343334775,2025.7727785319632,6064.676350197892
2.814864864864865,903.9413281111293,903.2855826912963,0.2780227670246013,0.32695508857863964,0.16704491142136035,0.35483250253593035,2023.5826390614466,6080.698603968485
2.833630630630631,905.7446118692557,905.0652738724765,0.28164521244216434,0.32818814396629764,0.16581185603370233,0.3549100531484834,2021.284042196342,6096.676966504348
2.8523963963963967,907.6173599579113,906.9127941968449,0.28544822589923424,0.32946274247771873,0.16453725752228127,0.3550113904155709,2018.87086717154,6112.613656998936
2.8711621621621624,909.5639857030409,908.8325041728444,0.28944209769304435,0.33078030996893487,0.1632196900310651,0.3551388115256081,2016.3365843524336,6128.510978962694
2.8899279279279284,911.5891703924774,910.8290318172511,0.29363778158054193,0.33214230489986774,0.1618576951001323,0.3552948211038068,2013.6742431107925,6144.371325616677
2.908693693693694,913.6978314924567,912.9073253000297,0.2980468805050664,0.3335501961116743,0.1604498038883257,0.35548214827072,2010.8764808817994,6160.197185414324
2.918076576576577,914.7850294092735,913.9787722992282,0.30033523843392873,0.3342718009432423,0.15972819905675767,0.3555884746531481,2009.4244197034536,6168.09798725301
2.9274594594594596,915.8949459616028,915.0726695438022,0.3026815216757594,0.3350053994214597,0.1589946005785403,0.35570376485107996,2007.9356024315161,6175.991144862552
2.9368423423423424,917.0281201101673,916.1897283600721,0.30508725338182874,0.33575113010521906,0.15824886989478096,0.3558284313839593,2006.4090625612275,6183.876995876123
2.9462252252252252,918.1849686808341,917.3306764205674,0.30755388424488955,0.33650908776043165,0.1574909122395684,0.3559629043486147,2004.8438795658642,6191.755881969071
2.955608108108108,919.3656763336348,918.496252130198,0.31008269666378785,0.33727928806565177,0.15672071193434825,0.3561076320402519,2003.2392397083981,6199.628146471542
2.964990990990991,920.5700013365459,919.6871924763609,0.312674633044176,0.33806160486979153,0.1559383951302085,0.3562630815736896,2001.5945449920541,6207.49412998364
2.9743738738738736,921.796935590531,920.9042022210994,0.3153299913023137,0.33885565943331036,0.15514434056668963,0.3564297394750024,1999.9096063761976,6215.354162486559
2.983756756756757,923.0441228543322,922.147865794044,0.3180478975162066,0.33966062921369355,0.15433937078630647,0.35660811210046167,1998.1849784017877,6223.20854940018
2.9931396396396397,924.3069125701146,923.4183849425954,0.3208254385515065,0.3404749343648691,0.1535250656351309,0.35679872531991136,1996.4225095774168,6231.057547558037
3.0025225225225225,925.576980816253,924.7148286109393,0.32365638436795663,0.3412957784043259,0.15270422159567415,0.357002121578272,1994.62615313063,6238.901325667501
3.0119054054054053,926.8407743988669,926.033243245034,0.32652973251369516,0.34211863243488644,0.15188136756511353,0.35721884906969703,1992.8028905886667,6246.7399047199315
3.021288288288288,928.0788733629964,927.3629548394488,0.3294291092637307,0.342937048252141,0.151062951747859,0.3574494319611727,1990.963111781766,6254.57308241263
3.0306711711711714,929.2683606257934,928.6823101897584,0.3323350286436729,0.34374353706226646,0.15025646293773356,0.3576943089927565,1989.1191813957905,6262.400367663674
3.040054054054054,930.3894136526429,929.9594245463518,0.3352311457816241,0.3445319164834121,0.14946808351658794,0.3579537489479664,1987.2814709524546,6270.2209767217155
3.049436936936937,931.4330526714574,931.1629528666372,0.33811136630879707,0.3452999371020121,0.1487000628979879,0.35822779628891166,1985.4538475899408,6278.033931751282
3.05881981981982,932.4040271515818,932.2762743370291,0.3409818635652776,0.3460499767070793,0.14795002329292073,0.3585163067499663,1983.6323940593927,6285.838235175942
3.068202702702703,933.3170299284097,933.3023358513759,0.3438566911014257,0.3467873393950156,0.14721266060498442,0.3588190608296092,1981.8081927808125,6293.633033913183
3.077585585585586,934.1903301426732,934.2576166445056,0.3467515963162069,0.34751789949154654,0.14648210050845348,0.3591358816338751,1979.9712513546674,6301.417708091658
3.0963513513513514,935.8829960754814,936.039108853961,0.35265236368157904,0.3489770915644463,0.14502290843555374,0.35981159574269755,1976.2269615713087,6316.955390642792
3.115117117117117,937.5791776638678,937.7616362327195,0.3587544554207748,0.35045201372440277,0.1435479862755972,0.36054441921458785,1972.3549228445718,6332.450501805126
3.133882882882883,939.3306715149486,939.5090836929533,0.36509314908589674,0.3519529117669207,0.14204708823307932,0.3613368697235017,1968.332750055752,6347.904199184845
3.1526486486486487,941.1633534560506,941.3235386308572,0.37168847442944203,0.3534835806616979,0.1405164193383021,0.3621923990932134,1964.147733468472,6363.3185992891285
3.1714144144144143,943.0915400198201,943.2262589018295,0.37855539919653236,0.35504544111950465,0.13895455888049532,0.36311500196482266,1959.7903754069775,6378.696287490598
3.1901801801801803,945.1251078321811,945.2297619139109,0.3857076376793725,0.3566391066028152,0.1373608933971848,0.3641090267266441,1955.251973565109,6394.040113389031
3.208945945945946,947.2725271247298,947.343383506059,0.3931588804464389,0.35826491007161326,0.13573508992838676,0.3651790936862034,1950.5238406904296,6409.3531162316285
3.2277117117117116,949.5420474723585,949.5755608433768,0.400923139306519,0.3599230645171492,0.13407693548285077,0.3663300593449694,1945.5970856897577,6424.638503135705
3.246477477477478,951.9421328990938,951.9347029860187,0.4090148088432599,0.3616137048679251,0.1323862951320749,0.36756699675565835,1940.4625745828582,6439.899647199251
3.2652432432432437,954.4816105664844,954.4295028053884,0.41744863482239036,0.36333689343482956,0.1306631065651704,0.36889517864678567,1935.110950549415,6455.140092619456
3.2840090090090093,957.169712395381,957.0690385148325,0.4262396433918464,0.3650926142768547,0.12890738572314528,0.37032005744145213,1929.5326788545854,6470.363562015845
3.3027747747747753,960.0160738624987,959.8627957331869,0.4354030432099843,0.36688076379853163,0.12711923620146837,0.37184723924975394,1923.7181089528417,6485.5739641617365
3.321540540540541,963.0307108882129,962.8206556209383,0.4449541006419398,0.3687011395010897,0.1252988604989103,0.37348244996348556,1917.6575536812331,6500.775401366252
3.3403063063063065,966.2239802090155,965.9528631266035,0.45490798488030953,0.37055342730272217,0.12344657269727784,0.37523149190031196,1911.3413875369486,6515.97217606863
3.3590720720720726,969.606523211258,969.2699782350626,0.4652795789690911,0.372437187452575,0.12156281254742501,0.3771001895179679,1904.7601665907273,6531.1687962739825
3.377837837837838,973.1891912993653,972.7828092302276,0.4760832525343835,0.3743518389757589,0.1196481610242411,0.3790943227428837,1897.904772698968,6546.3699794401355
3.396603603603604,976.9829501782764,976.5023256096877,0.4873325921728929,0.37629664258102014,0.11770335741897986,0.3812195465166854,1890.7665845837778,6561.580654375233
3.4153693693693694,980.9987601971311,980.4395477942902,0.49904008589491133,0.37827068198344377,0.11572931801655624,0.3834812953045041,1883.3376780674262,6576.805960644897
3.4341351351351355,985.2474299173172,984.6054106521842,0.5112167588248658,0.3802728436302524,0.11372715636974762,0.38588467156510786,1875.6110572359587,6592.05124492415
3.4529009009009015,989.7394403014065,989.0105979770065,0.5238717586101435,0.3823017948676245,0.11169820513237554,0.3884343175843958,1867.5809175150664,6607.322053668128
3.471666666666667,994.4847373978183,993.6653454229053,0.5370118907533105,0.3843559606520394,0.10964403934796058,0.39113427064657663,1859.2429405217065,6622.624121422125
3.4904324324324327,999.4924921631706,998.5792100445215,0.5506411064198412,0.38643349899268686,0.10756650100731315,0.39398780227985386,1850.59461907205,6637.96335405152
3.509198198198199,1004.7708271620256,1003.7608055655392,0.5647599482026586,0.3885322754131497,0.10546772458685032,0.3969972432715501,1841.635608867633,6653.345806152931
3.5279639639639644,1010.3265113392131,1009.217503844133,0.5793649628107063,0.3906498368410769,0.10335016315892306,0.40016379728830914,1832.3681011696292,6668.777651917138
3.54672972972973,1016.1646258740186,1014.9551047352876,0.5944480935820956,0.39278338547262365,0.10121661452737636,0.4034873472220322,1822.7972082752926,6684.265148760496
3.5748783783783784,1025.4573443872941,1024.0960458082816,0.6179386567329801,0.3960066471039706,0.09799335289602941,0.40876300537140015,1807.8914392176353,6707.61451179525
3.6030270270270273,1035.3914286708819,1033.8801024340382,0.6424038975585585,0.3992462822770988,0.09475371772290123,0.4143749297737874,1792.3671954034849,6731.124383412487
3.631175675675676,1045.951395269566,1044.2955594288105,0.667740600424948,0.40248776753480314,0.09151223246519687,0.4203003003205231,1776.2899715760666,6754.815336939849
3.6593243243243245,1057.1039368914662,1055.3132223319894,0.6938091695337955,0.40571432966088955,0.08828567033911044,0.4265053842657135,1759.7483472521124,6778.70681585023
3.687472972972973,1068.7956359107043,1066.8839316462893,0.7204320603439942,0.4089069154828841,0.08509308451711585,0.4329449989096362,1742.8549820520066,6802.816475852331
3.715621621621622,1080.951375328016,1078.936730439289,0.747394094043317,0.41204425901860825,0.08195574098139179,0.439562558228459,1725.7464161540563,6827.159462620471
3.7343873873873874,1089.2657895018247,1087.1944451382421,0.765434890998768,0.41409370359036346,0.07990629640963655,0.4440403001323831,1714.29875730881,6843.523769301143
3.7531531531531535,1097.7074331459728,1095.590273373457,0.7834294810469796,0.4161004563167773,0.07789954368322273,0.4485440161556656,1702.8804187265036,6860.00373995036
3.771918918918919,1106.218580135378,1104.0682634066925,0.8012472548333931,0.4180521873191591,0.07594781268084093,0.45303878152329313,1691.5742776401478,6876.641976772004
3.8000675675675675,1119.0173395739396,1116.8407701940341,0.8274391236909963,0.4208597638589397,0.07314023614106034,0.4597074610825236,1674.9544143413334,6901.906121914758
3.8282162162162163,1131.7174574267663,1129.5431678726939,0.8527194588980274,0.4235017875202284,0.0704982124797716,0.4662118993248547,1658.9129582095345,6927.536253771506
3.846981981981982,1140.0498726555234,1137.8929663964036,0.8689176572532397,0.42515950444603234,0.06884049555396765,0.4704147140316384,1648.6345071446513,6944.82276448527
3.8657477477477475,1148.2178496956883,1146.0908037291858,0.8844900923080864,0.4267265408506161,0.06727345914938389,0.47448180719097494,1638.7531297122773,6962.264863346102
3.8845135135135136,1156.1724410530512,1154.0873957510953,0.899353466084425,0.4281966674845901,0.06580333251540992,0.47838927072308124,1629.3216820494572,6979.857590572796
3.9032792792792796,1163.8653242326136,1161.833974544119,0.913428865340565,0.42956415314921403,0.06443584685078596,0.4821142849015257,1620.3902379900396,6997.594796571061
3.9220450450450453,1171.249425408175,1169.2829462431346,0.9266426136140078,0.4308238630222225,0.0631761369777775,0.4856353282977006,1612.0055484070429,7015.469166066239
3.940810810810811,1178.2794823966385,1176.3884926297992,0.9389269486409216,0.43197135264981984,0.06202864735018017,0.48893232888017457,1604.210611360965,7033.472258456648
3.950193693693694,1181.6482144354093,1179.7987784156812,0.9447011490885078,0.43250183668187014,0.06149816331812985,0.49049095893562344,1600.546633711238,7042.519143630846
3.959576576576577,1184.91252037634,1183.1070903337688,0.9502204984754579,0.43300295679516987,0.060997043204830174,0.49198674742686105,1597.044369981673,7051.594562780742
3.9689594594594597,1188.0674451492755,1186.3084141922573,0.955478365095793,0.4334743904949685,0.06052560950503146,0.49341761748780655,1593.7080282739296,7060.697170766392
3.9783423423423425,1191.1082137669941,1189.3979232266142,0.9604685338385089,0.43391587444127744,0.06008412555872259,0.49478158382228316,1590.5415523423017,7069.82556442914
3.9877252252252253,1194.0302336108255,1192.37098271275,0.9651851988618989,0.43432720707990424,0.05967279292009576,0.49607674742254215,1587.5486262421741,7078.978285102866
3.9971081081081086,1196.829093124578,1195.2231514110356,0.9696229507822948,0.4347082514131109,0.059291748586889084,0.4973012881634736,1584.7326824593147,7088.153821156188
4.006490990990992,1199.5005562569054,1197.9501793486918,0.9737767575449047,0.43505893802539675,0.05894106197460328,0.498453454855864,1582.0969140481488,7097.350610516718
4.015873873873875,1202.040551771553,1200.548001303245,0.9776419378156435,0.43537926853071046,0.05862073146928956,0.49953155217231043,1579.644291515782,7106.567043119169
4.025256756756757,1204.445156215748,1203.012725137925,0.981214125242884,0.4356693196837023,0.05833068031629769,0.500533923605818,1577.377585499451,7115.80146320675
4.03463963963964,1206.7105688375443,1205.3406138269713,0.9844892211970925,0.4359292485162524,0.05807075148374755,0.5014589292344034,1575.2993967552507,7125.052171398091
4.040894894894895,1208.1416790086166,1206.8147340962332,0.9865056389861756,0.43608591645007483,0.0579140835499252,0.5020318041780228,1574.0198932501721,7131.227500928074
4.047150150150151,1209.5081862574486,1208.2253891738555,0.9883871641369635,0.43622939874037503,0.05777060125962498,0.5025690604131989,1572.8259849052051,7137.408770532897
4.053405405405406,1210.8090011642955,1209.5715473560647,0.9901326885721351,0.43635981146651553,0.05764018853348446,0.5030701809565894,1571.7183748428986,7143.595446268189
4.059660660660661,1212.0430227190925,1210.852181794799,0.9917410983389688,0.4364772932596303,0.05752270674036966,0.5035346241473516,1570.6977699139954,7149.786986272922
4.065915915915916,1213.2091247645058,1212.0662610920767,0.9932112527021127,0.43658200798695657,0.05741799201304343,0.5039618133985452,1569.7648939639653,7155.98284068913
4.0721711711711714,1214.3061387415607,1213.2127376497062,0.9945419579731992,0.43667414836281476,0.057325851637185225,0.504351124117669,1568.9205044392347,7162.18245146041
4.078426426426426,1215.3328315182268,1214.2905332138853,0.9957319344289874,0.43675394093409786,0.05724605906590213,0.5047018667521076,1568.1654133790462,7168.385251975224
4.084681681681682,1216.2878766303609,1215.2985209634464,0.9967797742064168,0.43682165317879407,0.05717834682120593,0.5050132644569777,1567.5005141328481,7174.590666509708
4.090936936936937,1217.169816755225,1216.2355035501362,0.9976838878368971,0.43687760400141273,0.057122395998587226,0.5052844232557311,1566.9268152865816,7180.798109409481
4.0971921921921926,1217.977015053345,1217.1001871460335,0.9984424382841159,0.43692218000905986,0.05707781999094017,0.5055142918988627,1566.4454825185162,7187.006983931513
4.103447447447447,1218.7075949913242,1217.8911543218953,0.9990532688610035,0.43695586238527667,0.05704413761472332,0.5057016089103247,1566.0578843390276,7193.216680653685
4.1065750750750745,1219.0434857159098,1218.2585128881901,0.9993025160289584,0.4369688057844291,0.05703119421557092,0.5057788434976432,1565.899726328939,7196.321642923332
4.109702702702703,1219.3593810511811,1218.6068491298142,0.9995138668565703,0.43697927521125174,0.05702072478874826,0.5058448411064521,1565.7656151709266,7199.426575391145
4.1143941441441445,1219.795041701301,1219.0932350976332,0.9997591119740831,0.4369906021113529,0.05700939788864716,0.505922244245174,1565.6099966333597,7204.083741327632
4.1190855855855855,1220.184017060042,1219.5357393372617,0.9999176032597895,0.43699715346132867,0.05700284653867132,0.5059730352719862,1565.5094271200953,7208.74038111874
4.122213213213214,1220.4172281001925,1219.8062445777475,0.9999755977244591,0.4369992484014677,0.05700075159853227,0.5059919228131861,1565.4726271467853,7211.844376603257
4.123777027027027,1220.526204698896,1219.9342334262817,0.9999910225980015,0.4369997436760133,0.057000256323986725,0.5059970082802354,1565.4628394034567,7213.396214028481
4.124558933933934,1220.5788958511712,1219.9964559304683,0.9999956454209813,0.43699988117933086,0.057000118820669125,0.5059985433209693,1565.459906024155,7214.1720883144535
4.125340840840841,1220.6304810543443,1220.0575309651074,0.9999984463410313,0.43699995980492384,0.05700004019507616,0.5059994780723084,1565.458128720344,7214.947931443049
4.125862112112112,1220.6643136921607,1220.0976295799119,0.9999994450385736,0.43699998626783393,0.05700001373216605,0.5059998129396159,1565.4574950039519,7215.465142365678
4.126383383383383,1220.697760435382,1220.1372528398624,0.9999998989043738,0.4369999977039561,0.0570000022960439,0.5059999657127979,1565.4572070066504,7215.9823387008355
4.126644019019019,1220.7143619215085,1220.1568930298629,0.9999999781900656,0.4369999996105454,0.05700000038945456,0.5059999924918867,1565.457156696481,7216.240931323977
4.126904654654655,1220.730898428022,1220.1764235195812,0.9999999993628376,0.43700000010426565,0.056999999895734337,0.5059999996585061,1565.4571432614496,7216.499520218204
4.126969813563564,1220.7350241672348,1220.1812894798693,0.9999999999440053,0.43700000011729934,0.056999999882700686,0.5059999998557397,1565.4571428926738,7216.564166856804
4.127034972472472,1220.7391471057892,1220.1861489197015,1.0000000000131597,0.43700000011866996,0.056999999881330046,0.5059999998793893,1565.4571428487925,7216.628813260907
4.127100131381381,1220.7432674301144,1220.1910018989654,1.000000000018524,0.43700000011859735,0.05699999988140263,0.5059999998814027,1565.4571428453887,7216.693459430295
4.12716529029029,1220.74738517636,1220.1958484549118,1.000000000018524,0.43700000011840356,0.05699999988159643,0.5059999998815964,1565.4571428453887,7216.758105364761
4.127295608108108,1220.755612994984,1220.2055224324915,1.000000000018524,0.43700000011801593,0.05699999988198409,0.5059999998819841,1565.4571428453887,7216.887396528089
4.127425925925926,1220.7638306713454,1220.2151711203805,1.000000000018524,0.4370000001176282,0.056999999882371824,0.5059999998823719,1565.4571428453887,7217.016686749244
4.127947197197197,1220.796602067282,1220.2535182301542,1.000000000018524,0.4370000001160766,0.056999999883923416,0.5059999998839234,1565.4571428453887,7217.533838179785
4.128468468468468,1220.829219508431,1220.2914813994066,1.000000000018524,0.4370000001145239,0.056999999885476084,0.5059999998854761,1565.4571428453887,7218.050974408281
4.1296413288288285,1220.902078406152,1220.3755757014585,1.000000000018524,0.43700000011102647,0.056999999888973536,0.5059999998889735,1565.4571428453887,7219.2144748434075
4.13081418918919,1220.9742574795239,1220.4579739265866,1.000000000018524,0.4370000001075236,0.0569999998924764,0.5059999998924765,1565.4571428453887,7220.377896802243
4.13198704954955,1221.045818400691,1220.5388294433017,1.000000000018524,0.43700000010401535,0.05699999989598466,0.5059999998959847,1565.4571428453887,7221.541239351361
4.13315990990991,1221.1168172759533,1220.6182817773258,1.000000000018524,0.4370000001005017,0.05699999989949826,0.5059999998994983,1565.4571428453887,7222.704501646287
4.135505630630631,1221.2573284394925,1220.7734731363778,1.000000000018524,0.4370000000934586,0.05699999990654144,0.5059999999065414,1565.4571428453887,7225.030782493129
4.137851351351351,1221.396146517398,1220.9244321632716,1.000000000018524,0.4370000000863942,0.05699999991360576,0.5059999999136058,1565.4571428453887,7227.356734077738
4.1401970720720715,1221.533565768345,1221.0718905968204,1.000000000018524,0.4370000000793089,0.05699999992069108,0.5059999999206911,1565.4571428453887,7229.682352114055
4.142542792792792,1221.6698297455864,1221.2164540779615,1.000000000018524,0.4370000000722027,0.0569999999277973,0.5059999999277973,1565.4571428453887,7232.007633125701
4.1448885135135125,1221.805140036808,1221.3586238868947,1.000000000018524,0.43700000006507567,0.05699999993492433,0.5059999999349243,1565.4571428453887,7234.332574306193
4.147234234234234,1221.9396634969457,1221.4988149313333,1.000000000018524,0.4370000000579279,0.05699999994207212,0.5059999999420721,1565.4571428453887,7236.6571734032805
4.151925675675676,1222.2068784340713,1221.7745749267804,1.000000000018524,0.43700000004357015,0.05699999995642984,0.5059999999564299,1565.4571428453887,7241.305338553707
4.156617117117117,1222.472318006614,1222.0458313804136,1.000000000018524,0.43700000002912964,0.056999999970870345,0.5059999999708703,1565.4571428453887,7245.952118393952
4.1613085585585585,1222.7365599187237,1222.3140207896204,1.000000000018524,0.4370000000146063,0.05699999998539367,0.5059999999853937,1565.4571428453887,7250.597506973395
4.166,1223.0,1222.580127398457,1.000000000018524,0.437,0.057,0.506,1565.4571428453887,7255.241501233952
