z,T,t,fs,x,y,w,rhob,p
0.0,556.2447130514165,298.0,0.0,0.22647893958601517,0.2675210604139848,0.35471961163059185,2200.0,2040.0
0.002197257383966245,576.3977571762437,344.4004969375123,4.803586857705892e-07,0.22647911338048363,0.2675208866195164,0.35471961163059185,2199.999695191827,2044.5598131018198
0.00439451476793249,594.4094933882418,385.53884466575084,1.963166858214284e-06,0.2264796498626287,0.2675203501373713,0.35471961163059185,2199.998754286493,2049.3622637224817
0.00878902953586498,625.0522332641766,454.84478414868164,1.1188128728982001e-05,0.2264829874671985,0.2675170125328015,0.35471961163059185,2199.9929006528305,2059.59896107169
0.013183544303797468,649.8782149678401,510.3968892670569,3.37904102672411e-05,0.22649116500540484,0.26750883499459516,0.35471961163059185,2199.9785585365253,2070.5391966322786
0.01757805907172996,670.1316828478614,555.3369771518798,7.377265543569886e-05,0.2265056306396324,0.26749436936036763,0.35471961163059185,2199.953188088441,2082.042384866487
0.026367088607594937,700.4315400211026,621.941445509191,0.00021067623486231569,0.2265551625530125,0.2674448374469875,0.35471961163059185,2199.8663168999983,2106.2963110065893
0.03515611814345992,721.133396294439,666.9996855883799,0.00041873173106803764,0.22663043733296695,0.26736956266703304,0.35471961163059185,2199.734296770992,2131.6622965277597
0.0439451476793249,735.4363519817014,697.8858051697911,0.0006859114391863539,0.22672710333844953,0.26727289666155046,0.35471961163059185,2199.5647597956317,2157.6693355722673
0.05273417721518988,745.4014084531742,719.24929067772,0.0009997518427316565,0.2268406512511388,0.2671593487488612,0.35471961163059185,2199.3656146092794,2183.9998704522577
0.061523206751054854,752.3934005877597,734.1248209076964,0.0013498426700625443,0.2269673146196727,0.26703268538032726,0.35471961163059185,2199.143466975445,2210.4404343498813
0.07031223628691984,757.3329539483724,744.5392418038772,0.0017281418271098967,0.22710418380276576,0.26689581619723424,0.35471961163059185,2198.9034199474777,2236.8483691433694
0.07910126582278482,760.848837051723,751.8674626626354,0.0021286514096856253,0.22724908874999308,0.26675091125000694,0.35471961163059185,2198.649279452637,2263.129271230584
0.0878902953586498,763.3741233695015,757.0520313416736,0.0025469773905536005,0.2274004396959346,0.26659956030406545,0.3547196116305919,2198.38383368952,2289.2216426781974
0.09667932489451478,765.2088052811113,760.743734439005,0.0029799323545936615,0.227557083429182,0.26644291657081803,0.3547196116305919,2198.1091052096235,2315.086412716454
0.10546835443037976,766.5614867053895,763.3940867628357,0.003425217456678742,0.22771818822423778,0.26628181177576227,0.3547196116305919,2197.826552728703,2340.699768553504
0.11425738396624474,767.5775913573591,765.3173619047907,0.0038811804593951453,0.2278831562992119,0.2661168437007881,0.35471961163059196,2197.5372246622082,2366.048243828629
0.12304641350210972,768.3586639862297,766.7327714678756,0.004346636317571452,0.22805155890304457,0.2659484410969555,0.35471961163059196,2197.241872972087,2391.1253517711684
0.1318354430379747,768.9756814566634,767.793425223623,0.004820736036939564,0.22822308886837947,0.26577691113162055,0.35471961163059196,2196.9410363815887,2415.9292774660817
0.14062447257383967,769.4782827987639,768.6063497438809,0.0053028716454309914,0.22839752623004145,0.26560247376995855,0.354719611630592,2196.6351006750465,2440.46129729449
0.14941350210970467,769.9011931828062,769.2463905838438,0.005792607715574392,0.2285747134497405,0.2654252865502595,0.354719611630592,2196.324342149852,2464.7246980664104
0.15820253164556963,770.2687059820297,769.7658971627848,0.006289632205806207,0.22875453763038692,0.26524546236961305,0.354719611630592,2196.00895880975,2488.7240396542306
0.1713860759493671,770.7518271076867,770.3961208234969,0.007048362951601125,0.22902904751345157,0.26497095248654845,0.35471961163059207,2195.5275116345115,2524.2397305398154
0.1845696202531646,771.1847765436422,770.9155902394455,0.007822495101680527,0.22930912964689965,0.26469087035310035,0.3547196116305921,2195.0362916081936,2559.1929639965965
0.19775316455696207,771.5894222302279,771.3714119722722,0.008611718062791172,0.22959467165764214,0.26440532834235786,0.3547196116305921,2194.5354958155276,2593.6040038186184
0.21093670886075952,771.9785387324746,771.7911017605239,0.00941584144185328,0.22988560466118693,0.2641143953388131,0.3547196116305922,2194.0252450690823,2627.4929220880804
0.23730379746835445,772.7368812519626,772.5795786826559,0.011068368564693194,0.23048349136838328,0.26351650863161674,0.35471961163059224,2192.9766457870496,2693.7812693790856
0.2636708860759494,773.4894590910757,773.3448594798299,0.012779596242702102,0.2311026160214841,0.2628973839785159,0.35471961163059235,2191.8907984870234,2758.202804557795
0.28124894514767934,773.9932725108072,773.8535431758901,0.013952947589716753,0.23152713623876522,0.26247286376123474,0.3547196116305924,2191.146256770857,2800.1781807720467
0.2988270042194093,774.5002267905488,774.3641560908584,0.015152320632422611,0.23196107114324727,0.2620389288567528,0.35471961163059246,2190.385203173558,2841.4169846161517
0.31640506329113927,775.010880765315,774.8778791000279,0.0163777350544212,0.23240442785648568,0.2615955721435143,0.3547196116305925,2189.607625205039,2881.951728231001
0.33398312236286926,775.5255169188673,775.3952957511376,0.017629225971355852,0.23285721908337112,0.2611427809166289,0.3547196116305926,2188.8135005829186,2921.8126205680283
0.3515611814345992,776.0442847705883,775.9167013275854,0.01890684122426003,0.23331946213285884,0.2606805378671412,0.3547196116305927,2188.0027989500113,2961.0277791357444
0.3691392405063292,776.5672703172582,776.4422525704351,0.020210639775861725,0.2337911783377492,0.2602088216622508,0.35471961163059273,2187.1754828919397,2999.6234232378893
0.38671729957805917,777.0945295930942,776.9720400689002,0.021540690679255178,0.2342723926815518,0.2597276073184482,0.35471961163059285,2186.3315085915547,3037.624047625775
0.4042953586497891,777.6261048514805,777.5061231904733,0.022897072352307236,0.23476313353596448,0.25923686646403554,0.3547196116305929,2185.4708262893605,3075.052577552039
0.42187341772151904,778.162032346568,778.0445468992594,0.02427987202304928,0.2352634324602153,0.2587365675397847,0.354719611630593,2184.5933806354315,3111.930506953929
0.439451476793249,778.7023460629052,778.5873498343958,0.02568918527716953,0.23577332403734477,0.2582266759626552,0.3547196116305931,2183.6991109765527,3148.2780216492943
0.45702953586497896,779.2470794949144,779.134568179492,0.027125115671651247,0.23629284573441947,0.2577071542655805,0.3547196116305932,2182.78795160138,3184.114109339857
0.4746075949367089,779.7962664902166,779.6862375094533,0.02858777439512925,0.23682203777964858,0.2571779622203514,0.3547196116305933,2181.859831955959,3219.456658039996
0.4921856540084389,780.3499416450209,780.2423936676709,0.03007727996390078,0.23736094305240016,0.25663905694759986,0.3547196116305934,2180.914676836621,3254.322544353882
0.5097637130801688,780.9081404861513,780.8030731797102,0.03159375794682417,0.237909606983669,0.256090393016331,0.3547196116305935,2179.9524065645423,3288.727712837789
0.5273417721518988,781.4708995521621,781.3683134462856,0.03313734071460629,0.2384680774653687,0.2555319225346313,0.3547196116305936,2178.9729371448375,3322.6872475178025
0.5449198312236287,782.0382564273159,781.9381528317334,0.034708167210226536,0.23903640476727045,0.25496359523272955,0.35471961163059373,2177.9761804122304,3356.215436488187
0.5624978902953588,782.610249754071,782.5126307034817,0.036306382737972764,0.23961464146067615,0.25438535853932387,0.3547196116305939,2176.962044164925,3389.3258303910593
0.5800759493670887,783.1869192362794,783.0917874489545,0.03793213876902182,0.240202842348077,0.253797157651923,0.354719611630594,2175.9304322879657,3422.0312954715537
0.5976540084388187,783.7683056388985,783.6756644824707,0.03958559276180969,0.24080106439816332,0.2531989356018367,0.3547196116305941,2174.8812448672275,3454.3440618118093
0.6152320675105486,784.354450787007,784.2643042480975,0.04126690799566585,0.241409366685633,0.252590633314367,0.3547196116305943,2173.8143782949787,3486.275767269499
0.6328101265822785,784.945397565534,784.8577502212966,0.04297625341636611,0.24202781033531254,0.25197218966468743,0.3547196116305944,2172.7297253678835,3517.8374975802462
0.6503881856540085,785.5411899205353,785.4560469107474,0.04471380349240578,0.24265645847015627,0.25134354152984373,0.35471961163059457,2171.627175378205,3549.0398230263445
0.6679662447257385,786.141872862694,786.0592398610944,0.04647973808091898,0.24329537616273592,0.25070462383726405,0.35471961163059473,2170.506614198882,3579.8928320252426
0.6855443037974684,786.7474924738345,786.6673756571203,0.04827424230227737,0.24394463038987016,0.25005536961012986,0.3547196116305949,2169.3679243631063,3610.406161949067
0.7031223628691984,787.3580959175798,787.2805019298455,0.05009750642249609,0.24460428999007888,0.2493957100099211,0.35471961163059507,2168.210985138937,3640.589027450004
0.7207004219409283,787.9737314558861,787.8986673651995,0.05194972574265854,0.24527442562357707,0.24872557437642293,0.35471961163059523,2167.0356725994657,3670.4502465347628
0.7382784810126584,788.5944484741889,788.5219217162289,0.05383110049464959,0.2459551097345507,0.24804489026544932,0.35471961163059545,2165.841859688981,3699.998264603969
0.7558565400843883,789.2202975194942,789.1503158203318,0.055741835742559226,0.24664641651548463,0.24735358348451536,0.3547196116305956,2164.6294162855284,3729.241176648501
0.7734345991561181,789.8513303583114,789.7839016238489,0.05768214128919186,0.2473484218733375,0.2466515781266625,0.35471961163059584,2163.398209260238,3758.1867477741644
0.7910126582278482,790.4876000654418,790.4227322176808,0.05965223158719316,0.24806120339738721,0.24593879660261278,0.35471961163059607,2162.1481025337152,3786.842432208137
0.8085907172995781,791.1291611613038,791.0668618897096,0.06165232565439525,0.24878484032860268,0.24521515967139731,0.3547196116305963,2160.878957129758,3815.2153909252825
0.8261687763713081,791.7760698262767,791.7163462031839,0.06368264699309306,0.24951941353043805,0.24448058646956197,0.3547196116305965,2159.590631226583,3843.312508019371
0.8437468354430381,792.4283842382191,792.3712421156149,0.06574342351311616,0.25026500546099983,0.24373499453900016,0.35471961163059673,2158.282980205634,3871.1404059335573
0.8613248945147681,793.0861651082953,793.0316081614217,0.06783488745878187,0.25102170014661856,0.24297829985338149,0.354719611630597,2156.9558566979404,3898.705459656426
0.878902953586498,793.7494765380901,793.6975047356214,0.06995727534015077,0.25178958315697664,0.24221041684302333,0.35471961163059723,2155.6091106277313,3926.0138099848455
0.896481012658228,794.4183874003143,794.3689945387462,0.07211082786953182,0.25256874158213644,0.24143125841786356,0.3547196116305975,2154.242589252731,3953.071375954044
0.9140590717299579,795.0929735775575,795.0461432806972,0.07429578990502697,0.25335926401211384,0.24064073598788618,0.3547196116305978,2152.8561371999785,3979.8838665402877
0.9316371308016879,795.7733216145682,795.7290208032264,0.07651241040427477,0.25416124052014316,0.23983875947985686,0.35471961163059806,2151.449596495185,4006.4567917556774
0.9492151898734178,796.4595347103193,796.4177028841361,0.07876094239380607,0.2549747626515898,0.23902523734841016,0.3547196116305984,2150.0228065821702,4032.7954732830594
0.9667932489451477,797.1517425988847,797.112274160883,0.08104164296317497,0.255799923421827,0.23820007657817296,0.3547196116305987,2148.5756043265956,4058.905054850986
0.9843713080168778,797.8501179126673,797.8128329111057,0.08335477329934635,0.25663681732867705,0.23736318267132292,0.354719611630599,2147.1078239941376,4084.790512639122
1.0019493670886077,798.5549033623702,798.5194989544676,0.08570059878762551,0.25748554038892785,0.23651445961107215,0.35471961163059934,2145.6192971864466,4110.456666158415
1.0107383966244727,798.9098055255605,798.87516877153,0.08688585634436159,0.2579143682901356,0.23608563170986438,0.3547196116305995,2144.867200469945,4123.208970009273
1.0195274261603375,799.2664570107816,799.2324271459483,0.08807938922652316,0.25834619021607147,0.23565380978392855,0.35471961163059973,2144.1098527048043,4135.908190325584
1.0283164556962026,799.624932815009,799.5913025331068,0.08928123191351538,0.2587810186414341,0.23521898135856587,0.3547196116305999,2143.347232012364,4148.554891223978
1.0371054852320676,799.9853269476215,799.9518292122159,0.09049141922727716,0.25921886616485157,0.23478113383514845,0.35471961163060006,2142.5793162966115,4161.149629781893
1.0458945147679326,800.3477577950415,800.3140490922776,0.09170998636617407,0.25965974552114346,0.23434025447885656,0.3547196116306003,2141.806083222675,4173.692956747768
1.0546835443037976,800.7123749177078,800.6780141492525,0.09293696895055338,0.260103669597803,0.233896330402197,0.35471961163060045,2141.027510187919,4186.185417384712
1.0634725738396626,801.0793675861413,801.043789744562,0.09417240308415212,0.2605506514572146,0.2334493485427854,0.3547196116306007,2140.2435742829734,4198.627552483328
1.0722616033755277,801.4489753703531,801.4114591818561,0.09541632543723841,0.2610007043667344,0.23299929563326563,0.35471961163060084,2139.4542522389825,4211.019899586068
1.0810506329113925,801.8215010542812,801.7811300074922,0.09666877335977513,0.26145384183963305,0.23254615816036697,0.35471961163060106,2138.659520355793,4223.362994471413
1.0898396624472575,802.1973260130678,802.1529427568139,0.09792978503629027,0.2619100776911281,0.2320899223088719,0.3547196116306013,2137.859354403686,4235.657372949913
1.0986286919831225,802.5769279058081,802.5270830862147,0.09919939969880327,0.262369426115421,0.23163057388457897,0.3547196116306015,2137.053729488265,4247.903573022624
1.1074177215189875,802.9609000221493,802.9037984692671,0.10047765792027527,0.262831901791868,0.23116809820813206,0.3547196116306017,2136.2426198642456,4260.1021374415295
1.1162067510548526,803.3499707955274,803.2834207633438,0.10176460201843673,0.2632975200310851,0.2307024799689149,0.35471961163060195,2135.4259986792154,4272.253616684752
1.1249957805907176,803.7450208095559,803.6663957416009,0.10306027660742156,0.26376629697453063,0.2302337030254693,0.35471961163060217,2134.6038376235933,4284.358572309277
1.1337848101265826,804.1470931353659,804.0533197461541,0.10436472933964085,0.2642382498629161,0.2297617501370839,0.3547196116306024,2133.776106459883,4296.417580563026
1.1425738396624474,804.5573913252181,804.4449814432236,0.10567801187740995,0.26471339738774197,0.22928660261225803,0.3547196116306026,2132.9427724061316,4308.431236023338
1.1513628691983124,804.9772584626943,804.8424028557923,0.10700018111478567,0.2651917601333604,0.22880823986663965,0.35471961163060284,2132.1037993606205,4320.400154887531
1.1601518987341775,805.4081312774923,805.2468686734524,0.1083313006255625,0.26567336110086226,0.2283266388991377,0.3547196116306031,2131.259146983054,4332.324977399057
1.1689409282700425,805.8514664727165,805.6599279322318,0.1096714422384837,0.26615822627799113,0.2278417737220089,0.35471961163060334,2130.4087696950146,4344.206368798663
1.1777299578059075,806.3086424754792,806.0833508295607,0.1110206875438568,0.2666463851842383,0.22735361481576172,0.3547196116306036,2129.5526157239565,4356.045018208192
1.1865189873417723,806.7808477650058,806.519029505192,0.11237912904629531,0.26713787128790706,0.226862128712093,0.3547196116306039,2128.690626371738,4367.841635040989
1.195308016877637,807.2689739761887,806.9688264132619,0.1137468706429433,0.26763272217913453,0.22636727782086544,0.35471961163060417,2127.822735711168,4379.5969428947255
1.2040970464135021,807.7735345654175,807.4343932891629,0.11512402716752078,0.2681309794049272,0.22586902059507286,0.3547196116306044,2126.9488708753292,4391.311671350325
1.2128860759493671,808.2946257353626,807.9169985347246,0.11651072290391255,0.26863268793137446,0.22536731206862556,0.3547196116306047,2126.0689530007717,4402.986546536095
1.2216751054852322,808.8319364584339,808.4174023794974,0.11790708919188099,0.2691378952773926,0.22486210472260737,0.354719611630605,2125.182898746786,4414.622281569893
1.2304641350210972,809.3848026866581,808.9358056444344,0.1193132614404542,0.26964665043416436,0.22435334956583566,0.3547196116306053,2124.2906221905414,4426.219567978837
1.239253164556962,809.9522917660533,809.4718760586205,0.12072937596070246,0.27015900271923227,0.2238409972807677,0.3547196116306056,2123.3920368368213,4437.779068936774
1.248042194092827,810.5332994178872,810.0248361600594,0.12215556700572691,0.27067500070556294,0.22332499929443705,0.3547196116306059,2122.48705749628,4449.301414761351
1.256831223628692,811.126643312491,810.5935860778767,0.12359196428982136,0.2711946913239757,0.22280530867602427,0.3547196116306062,2121.5756018596385,4460.787200707942
1.265620253164557,811.7311421771662,811.1768341047826,0.12503869110480526,0.2717181191816296,0.22228188081837044,0.35471961163060656,2120.6575916929537,4472.23698678628
1.274409282700422,812.345675079635,811.7732145528412,0.12649586300835766,0.2722453260874601,0.22175467391253986,0.3547196116306069,2119.7329536699253,4483.651299149047
1.283198312236287,812.9692202656427,812.3813813613642,0.12796358695359603,0.2727763507372603,0.2212236492627397,0.3547196116306073,2118.801619924217,4495.0306325508
1.2919873417721521,813.6008759837254,813.0000738981587,0.12944196066503175,0.27331122848789985,0.22068877151210015,0.3547196116306076,2117.8635284454376,4506.375453414194
1.300776371308017,814.2398671585449,813.6281568392462,0.13093107203253213,0.27384999113806013,0.2201500088619399,0.354719611630608,2116.9186234636995,4517.686203127338
1.309565400843882,814.8855420072155,814.2646388401462,0.1324309982753499,0.2743926666257786,0.2196073333742214,0.3547196116306084,2115.966855980079,4528.963301297401
1.318354430379747,815.5373622236913,814.9086755467263,0.13394180460587504,0.2749392785449925,0.21906072145500752,0.3547196116306088,2115.0081846145176,4540.20714878026
1.327143459915612,816.1948895807351,815.5595621098495,0.1354635420826913,0.27548984536877136,0.21851015463122864,0.35471961163060917,2114.0425769681574,4551.418130382904
1.335932489451477,816.8577709736282,816.2167194058139,0.1369962442714001,0.27604437924119846,0.21795562075880157,0.3547196116306096,2113.0700117421848,4562.596617191937
1.344721518987342,817.5257231888388,816.8796770482378,0.13853992221585879,0.2766028841579573,0.21739711584204272,0.35471961163061005,2112.0904819288,4573.742968518833
1.353510548523207,818.1985180730662,817.5480552376964,0.14009455704589543,0.27716535329179237,0.21683464670820765,0.3547196116306105,2111.1039995019346,4584.857533473974
1.3622995780590719,818.8759683014276,818.2215466276068,0.14166008928969334,0.27773176512571424,0.21626823487428576,0.35471961163061094,2110.1106021990054,4595.940652190464
1.371088607594937,819.5579135705354,818.8998987009537,0.1432364035933824,0.2783020779245256,0.21569792207547442,0.3547196116306114,2109.110363216988,4606.992656718085
1.379877637130802,820.2442067355643,819.5828966228243,0.1448233070442036,0.2788762218921107,0.2151237781078893,0.3547196116306119,2108.103404967294,4618.013871600105
1.3886666666666667,820.934699132263,820.2703461123666,0.14642049861079393,0.2794540881148863,0.21454591188511365,0.3547196116306124,2107.089918467225,4629.004614131764
1.3974556962025317,821.6292240424937,820.9620555173248,0.1480275263247805,0.2800355130700403,0.21396448692995965,0.3547196116306129,2106.070190510084,4639.965194280031
1.4062447257383968,822.3275769543502,821.6578159361785,0.14964372773240775,0.2806202570808442,0.21337974291915576,0.35471961163061344,2105.0446414511703,4650.895914219179
1.4150337552742618,823.0294909379263,822.3573778979844,0.15126814792636914,0.281207974660451,0.212792025339549,0.354719611630614,2104.0138772200935,4661.79706740576
1.4238227848101268,823.7346051555601,823.060422796403,0.15289942839515785,0.28179817429742937,0.21220182570257062,0.35471961163061455,2102.978759850627,4672.668937079498
1.4370063291139243,824.7971444952984,824.120554679008,0.15535483827027338,0.282686545147601,0.21131345485239902,0.35471961163061544,2101.420697053014,4688.922423254849
1.4501898734177217,825.8632065579977,825.1854148943456,0.1578114064850114,0.28357533508672617,0.21042466491327386,0.3547196116306164,2099.861899239268,4705.111470836789
1.4633734177215192,826.9288349889201,826.2516800255335,0.16025376891289347,0.2844589853515857,0.2095410146484143,0.3547196116306173,2098.3121156061015,4721.236808109825
1.4765569620253167,827.9881244916153,827.3143321173892,0.16265923828505144,0.2853292876554342,0.2086707123445658,0.3547196116306183,2096.785742197923,4737.298997810077
1.4853459915611817,828.686871112634,828.0173560283661,0.16422755491052313,0.28589670688267943,0.20810329311732062,0.35471961163061905,2095.7905780854912,4747.97221913739
1.4941350210970465,829.3763427741118,828.7130884400785,0.1657553522437767,0.2864494661712964,0.20755053382870362,0.35471961163061977,2094.821125200513,4758.617560500167
1.4999943741209565,829.829319730493,829.1714546152919,0.16674592290198903,0.28680785607055886,0.2071921439294411,0.35471961163062027,2094.1925656648496,4765.698952989852
1.5058537271448664,830.275906327809,829.6244418813902,0.1677104670099319,0.28715682952622706,0.20684317047377293,0.35471961163062077,2093.5805210907547,4772.767916979481
1.5117130801687766,830.7152639914169,830.0712032622426,0.1686461977395427,0.28749537825987037,0.20650462174012962,0.35471961163062127,2092.9867598400715,4779.824416014622
1.5175724331926865,831.1466586765933,830.5109537856556,0.16955081215898404,0.28782266906741355,0.20617733093258642,0.35471961163062177,2092.4127432217465,4786.868403222157
1.5234317862165965,831.5694967210313,830.9430064631949,0.17042261123132083,0.28813808723483203,0.20586191276516796,0.3547196116306223,2091.8595493475314,4793.899823100535
1.5292911392405064,831.9833491675602,831.3668016254036,0.17126056623791325,0.28844126057023145,0.20555873942976852,0.3547196116306228,2091.327830983491,4800.9186136998005
1.5351504922644164,832.3879620991914,831.7819264193878,0.17206432562590973,0.28873206188128087,0.20526793811871913,0.3547196116306234,2090.8178112049764,4807.924709009554
1.5410098452883263,832.7832531642827,832.1881230647871,0.17283416766556153,0.28901059184656025,0.20498940815343972,0.35471961163062393,2090.329313437587,4814.918041360795
1.5468691983122362,833.169296685277,832.5852863189834,0.17357091281305337,0.28927714730830595,0.20472285269169402,0.35471961163062454,2089.8618170667114,4821.898543669145
1.5527285513361464,833.546301007219,832.9734520355166,0.17427581339300843,0.28953218135938097,0.204467818640619,0.3547196116306251,2089.414527438705,4828.866151391918
1.5585879043600563,833.914581967338,833.3527794682968,0.17495043733665278,0.28977626127957457,0.20422373872042546,0.3547196116306257,2088.986449634008,4835.820804125421
1.5644472573839663,834.2745358165499,833.7235300959749,0.17559655884970532,0.2900100289790862,0.20398997102091387,0.35471961163062626,2088.576457843054,4842.762446819106
1.5703066104078764,834.626613989796,834.0860453981624,0.17621606397928466,0.29023416683249575,0.2037658331675043,0.3547196116306269,2088.183355288116,4849.6910306221835
1.5761659634317864,834.9713011440136,834.4407254353664,0.1768108745726237,0.2904493701669165,0.20355062983308347,0.35471961163062754,2087.80592247476,4856.606513403387
1.5820253164556963,835.3090970656677,834.7880094566158,0.17738289080918432,0.29065632647003087,0.20334367352996915,0.35471961163062815,2087.442953657681,4863.508859997084
1.5908143459915611,835.8039627863338,835.2960807677641,0.17820217193394078,0.2909527435679272,0.20304725643207278,0.3547196116306291,2086.9230846719747,4873.837689794802
1.5996033755274262,836.286088492016,835.7901356057293,0.1789800893941365,0.2912341952320585,0.20276580476794145,0.3547196116306301,2086.4294627041604,4884.136834982654
1.605462728551336,836.6011941989879,836.1124882952844,0.17947834343578928,0.2914144642661898,0.20258553573381025,0.35471961163063076,2086.1132991609875,4890.986422348063
1.6113220815752463,836.9117514712358,836.4297446593085,0.1799619808852768,0.2915894449960993,0.2024105550039007,0.3547196116306314,2085.8064104719683,4897.822798347053
1.6171814345991562,837.2181592813237,836.7423254962464,0.18043230638958077,0.2917596094449553,0.20224039055504467,0.3547196116306321,2085.50796878268,4904.645965912155
1.6230407876230661,837.5207891722378,837.05062848147,0.18089051735419365,0.2919253908357997,0.20207460916420025,0.3547196116306328,2085.2172142880204,4911.455933042031
1.6289001406469763,837.8199856168573,837.3550268177319,0.18133771029211168,0.29208718588862326,0.20191281411137676,0.3547196116306335,2084.9334512034998,4918.252712391433
1.6347594936708862,838.1160669284684,837.6558688075636,0.1817748879501997,0.2922453573986943,0.20175464260130574,0.3547196116306342,2084.6560432432575,4925.036320874855
1.6435485232067513,838.5549834366076,838.1011650687936,0.18241385853609687,0.2924765378824004,0.2015234621175996,0.3547196116306353,2084.2505890220523,4935.187084696719
1.6523375527426163,838.9884388276714,838.5401747500997,0.1830351046945061,0.2927013056425625,0.20129869435743747,0.3547196116306364,2083.856381709706,4945.30834641938
1.6611265822784813,839.4172199568897,838.973778051549,0.1836410449466622,0.2929205357036673,0.2010794642963327,0.35471961163063753,2083.471886650845,4955.4002062046575
1.6699156118143463,839.8420194352606,839.4027529779202,0.1842337971283105,0.2931349943017557,0.2008650056982443,0.3547196116306387,2083.0957599879243,4965.462777471642
1.6787046413502114,840.263447137468,839.8277861095273,0.18481522016946209,0.2933453540003989,0.20065464599960112,0.35471961163063986,2082.726822150183,4975.496184990161
1.6874936708860762,840.682040737663,840.2494831538972,0.185386950296908,0.29355220678882044,0.2004477932111796,0.3547196116306411,2082.3640348815993,4985.500563221675
1.6962827004219412,841.0982751301584,840.6683788245089,0.18595043209052908,0.29375607531811404,0.20024392468188593,0.3547196116306423,2082.0064815343267,4995.476054881995
1.7050717299578062,841.5125707207521,841.0849458217028,0.18650694496840353,0.2939574224835941,0.2000425775164059,0.3547196116306435,2081.6533502627635,5005.422809699417
1.7138607594936712,841.9253006465659,841.4996028369275,0.18705762570452283,0.2941566595717376,0.1998433404282624,0.3547196116306448,2081.303919735093,5015.340983343055
1.7226497890295362,842.3367970183136,841.9127215898118,0.18760348755192574,0.29435415317896196,0.19964584682103806,0.35471961163064614,2080.9575469988367,5025.2307364982435
1.731438818565401,842.7473562931347,842.3246329573315,0.1881454364877381,0.29455023108910383,0.19944976891089614,0.35471961163064747,2080.6136571726806,5035.092234068373
1.740227848101266,843.157243887112,842.7356322788311,0.18868428503052068,0.2947451872725558,0.19925481272744422,0.3547196116306488,2080.2717346787763,5044.925644485116
1.749016877637131,843.5666981307292,843.1459839295993,0.1892207640164249,0.2949392861468961,0.1990607138531039,0.3547196116306502,2079.931315770263,5054.7311391114445
1.757805907172996,843.9759336609002,843.5559252551627,0.18975553266070827,0.29513276621716006,0.19886723378283994,0.3547196116306516,2079.5919821468096,5064.508891724035
1.766594936708861,844.3851443326045,843.9656699528822,0.19028918717985677,0.29532584319533606,0.19867415680466394,0.354719611630653,2079.2533554835018,5074.259078063676
1.775383966244726,844.7945057221098,844.3754109791508,0.19082226820338843,0.295518712681967,0.198481287318033,0.35471961163065446,2078.915092727741,5083.981875443995
1.784172995780591,845.2041772844742,844.785323051883,0.19135526717032653,0.2957115524804035,0.1982884475195965,0.35471961163065596,2078.576882040406,5093.6774624102645
1.792962025316456,845.6143042227658,845.195564811423,0.19188863189053637,0.29590452460890354,0.19809547539109645,0.35471961163065746,2078.238439266945,5103.346018441418
1.801751054852321,846.0250191518602,845.6062807153259,0.19242277157275703,0.29609777711978186,0.19790222288021814,0.354719611630659,2077.8995047468757,5112.987723689678
1.810540084388186,846.4364438954894,846.0176028979981,0.19295806276112337,0.2962914462472519,0.1977085537527481,0.35471961163066057,2077.559839546806,5122.602758755407
1.8193291139240508,846.8486938369189,846.4296545160088,0.1934948668310175,0.2964856627374506,0.19751433726254947,0.3547196116306622,2077.2192143585694,5132.191304513395
1.8281181434599159,847.261903681635,846.8425663213992,0.1940336422824032,0.29668059247632883,0.1973194075236711,0.3547196116306638,2076.8773382442887,5141.753542148612
1.8339774964838258,847.5380497455881,847.1184273036641,0.19439447372554045,0.2968111418152212,0.19718885818477877,0.3547196116306649,2076.648375229414,5148.113841744499
1.839836849507736,847.8150548967336,847.3949737290678,0.1947579905344403,0.296942662723337,0.197057337276663,0.354719611630666,2076.4177082348747,5154.462586124383
1.845696202531646,848.0936446358107,847.672695516438,0.19512728279922265,0.29707627319975843,0.1969237268002416,0.3547196116306672,2076.183376466059,5160.799837100124
1.8486258790436008,848.2336931219652,847.8121433959775,0.1953146634801674,0.2971440678015975,0.19685593219840242,0.35471961163066773,2076.064475393399,5163.96417435804
1.8500907172995782,848.3035985116314,847.8818614169428,0.19540757267700978,0.29717768248362014,0.19682231751637988,0.354719611630668,2076.0055205261797,5165.545274392794
1.8515555555555558,848.3725658258998,847.95111191208,0.19549597231642085,0.29720966560123063,0.19679033439876936,0.3547196116306683,2075.9494271664175,5167.125661549933
1.8530203938115335,848.4390570843682,848.0190313412548,0.19557281472952942,0.29723746729762096,0.196762532702379,0.35471961163066856,2075.900667362054,5168.70533153919
1.854485232067511,848.5023072761774,848.0850866954935,0.19563488814281138,0.297259925548477,0.196740074451523,0.3547196116306689,2075.861279121037,5170.2842760669
1.8559500703234884,848.5634303918505,848.1497215734022,0.195687813029872,0.2972790738492919,0.19672092615070808,0.3547196116306692,2075.827696011988,5171.862487569683
1.857414908579466,848.623615876932,848.2134967151835,0.1957373434166515,0.2972969940149872,0.19670300598501278,0.35471961163066945,2075.7962668588452,5173.439962381846
1.860344585091421,848.7429236791852,848.3393978247992,0.19583438799915787,0.29733210488553397,0.19666789511446603,0.35471961163067006,2075.734687912191,5176.592698417898
1.863274261603376,848.8614926885318,848.4636092409258,0.1959314943321752,0.29736723809750504,0.19663276190249496,0.3547196116306706,2075.6730697821918,5179.7424833158175
1.8808523206751058,849.5647469808641,849.1864974948452,0.19652385604052833,0.29758155542178705,0.19641844457821292,0.3547196116306742,2075.2971908913114,5198.579400378837
1.8896413502109706,849.9141004603032,849.5401481540722,0.19682603053215553,0.2976908825906412,0.19630911740935883,0.35471961163067606,2075.105448226039,5207.958337905758
1.8984303797468356,850.2634092867617,849.8918060666308,0.19713224242608532,0.2978016704974976,0.19619832950250238,0.35471961163067794,2074.9111436559733,5217.311124836708
1.9072194092827006,850.6133052959368,850.2428169583604,0.19744259095191924,0.29791395504377005,0.19608604495622994,0.3547196116306799,2074.7142142156804,5226.637926012218
1.9160084388185654,850.9642005804474,850.5940418998395,0.19775718521596652,0.2980277757042792,0.1959722242957208,0.35471961163068183,2074.5145906725315,5235.938913650343
1.9247974683544304,851.3163685559018,850.9460366875752,0.1980761387989542,0.2981431735726966,0.19585682642730337,0.3547196116306838,2074.3122009546864,5245.2142641545215
1.9335864978902955,851.6699953076161,851.2991649586826,0.1983995677609549,0.2982601906397248,0.19573980936027519,0.3547196116306858,2074.106971417056,5254.464156114274
1.9423755274261605,852.025211983324,851.6536694619684,0.19872758963723303,0.2983788694297927,0.19562113057020733,0.3547196116306878,2073.898827478477,5263.688769057024
1.9511645569620255,852.3821152007894,852.0097169404179,0.1990603228611837,0.29849925279227413,0.1955007472077259,0.35471961163068993,2073.687693987885,5272.888282671708
1.9599535864978905,852.7407798968243,852.3674263830644,0.1993978864220937,0.2986213837776655,0.19537861622233446,0.35471961163069204,2073.4734954414776,5282.062876328411
1.9687426160337556,853.1012674145102,852.7268868015332,0.1997403996650334,0.29874530556518625,0.19525469443481372,0.3547196116306942,2073.2561561096936,5291.212728783625
1.9775316455696204,853.4636305926097,853.0881684117251,0.20008798217978455,0.2988710614225927,0.19512893857740735,0.3547196116306964,2073.0356001076902,5300.338018001814
1.9863206751054854,853.8279169684523,853.451329665513,0.20044075374485942,0.29899869468592394,0.19500130531407608,0.3547196116306986,2072.8117514308688,5309.438921049841
1.9951097046413504,854.1941707945259,853.8164216723992,0.20079883430704235,0.2991282487521004,0.1948717512478996,0.35471961163070087,2072.5845339678544,5318.515614036966
2.0038987341772154,854.5624343092331,854.1834909803293,0.20116234398271815,0.29925976707940416,0.1947402329205958,0.35471961163070315,2072.3538714996516,5327.568272083377
2.0126877637130804,854.9327485390953,854.552581325527,0.2015314030731746,0.2993932931930155,0.1946067068069845,0.3547196116307055,2072.119687689939,5336.597069306513
2.0214767932489455,855.3051538068844,854.9237347349741,0.201906132089341,0.29952887069396306,0.19447112930603694,0.35471961163070787,2071.8819060693663,5345.602178818522
2.03026582278481,855.6796900550423,855.296992222479,0.20228665178180355,0.299666543269984,0.194333456730016,0.3547196116307103,2071.640450016512,5354.583772730636
2.039054852320675,856.0563970534623,855.6723942299088,0.20267308317513452,0.29980635470794387,0.19419364529205613,0.35471961163071275,2071.395242736098,5363.542022161871
2.056632911392405,856.816482283569,856.4297922990058,0.20346416675761883,0.30009256989419,0.19390743010581005,0.3547196116307178,2070.89326629943,5381.389167166434
2.074210970464135,857.5857283479189,857.1962495265999,0.20428035797240532,0.30038786905817827,0.1936121309418217,0.354719611630723,2070.3753579940244,5399.144963408408
2.091789029535865,858.3644565466838,857.9720877295703,0.205122638905257,0.3006926075199608,0.19330739248003923,0.35471961163072846,2069.8408946443756,5416.810745441598
2.1093670886075953,859.1529916546583,858.7576316321603,0.20599200001485954,0.30100714362892483,0.19299285637107516,0.35471961163073407,2069.2892477619994,5434.387833281357
2.1269451476793253,859.9516626377092,859.5532098288372,0.206889441641042,0.3013318393094699,0.1926681606905301,0.3547196116307399,2068.7197825884027,5451.877532900117
2.144523206751055,860.7608032681441,860.3591554916088,0.20781597559280068,0.30166706063555665,0.19233293936444337,0.3547196116307459,2068.131857087414,5469.281136727879
2.162101265822785,861.5807527180418,861.1758069950411,0.20877262681463224,0.302013178433589,0.19198682156641106,0.35471961163075216,2067.524820887824,5486.599924155786
2.179679324894515,862.4118561602478,862.0035085258801,0.20976043512482626,0.3023705689113304,0.1916294310886696,0.3547196116307586,2066.898014180364,5503.835162042519
2.197257383966245,863.2544653875423,862.8426107024311,0.21078045701849762,0.3027396143102442,0.19126038568975579,0.3547196116307653,2066.2507665736052,5520.988105223922
2.214835443037975,864.1089394521035,863.6934712116964,0.2118337675246966,0.3031207035773983,0.19087929642260174,0.35471961163077226,2065.582395915543,5538.0599970264
2.2324135021097047,864.9756453247396,864.5564554659835,0.2129214621083007,0.3035142330535723,0.19048576694642774,0.3547196116307795,2064.8922070867643,5555.052069784635
2.2499915611814347,865.8549585709485,865.4319372771939,0.21404465860239014,0.30392060717239416,0.19007939282760583,0.3547196116307869,2064.179490774272,5571.965545364085
2.2675696202531648,866.7472640411124,866.3202995463377,0.21520449916017587,0.3043402391665504,0.18965976083344963,0.3547196116307947,2063.4435222329043,5588.801635688626
2.285147679324895,867.6529565715409,867.2219349651429,0.21640215221380135,0.3047735517764833,0.18922644822351675,0.35471961163080273,2062.683560042391,5605.561543273584
2.302725738396625,868.5724416935545,868.1372467269177,0.21763881442945884,0.3052209779577548,0.18877902204224523,0.35471961163081106,2061.898844866747,5622.246461764301
2.320303797468355,869.5061363476714,869.066649243666,0.21891571264787854,0.3056829615831186,0.18831703841688144,0.3547196116308198,2061.0885982229506,5638.857576480301
2.337881856540085,870.4544696007051,870.0105688670789,0.22023410580205716,0.30615995813635677,0.18784004186364325,0.35471961163082877,2060.2520212640607,5655.3960649650135
2.355459915611815,871.4178833639705,870.9694446114464,0.22159528680523569,0.3066524353953531,0.18734756460464694,0.35471961163083815,2059.388293581215,5671.8630975409915
2.3730379746835446,872.3967909868888,871.9436991491677,0.2230004124805611,0.30716081190039807,0.18683918809960198,0.35471961163084786,2058.496681120549,5688.259837362924
2.390616033755274,873.3916991325893,872.9338138505077,0.22445103098381025,0.3076856477764947,0.18631435222350534,0.354719611630858,2057.576201510873,5704.587441024442
2.4081940928270043,874.4031058442349,873.9402887939857,0.22594857665322174,0.3082274619692957,0.18577253803070432,0.3547196116308685,2056.625944603103,5720.847060773098
2.4257721518987343,875.431511469245,874.9636240040966,0.22749448709712655,0.30878677460757803,0.185213225392422,0.3547196116308795,2055.6449981731407,5737.03984396581
2.4433502109704643,876.4774315879705,876.0043324211923,0.22909024482986287,0.30936412206717706,0.184635877932823,0.3547196116308909,2054.6324215021023,5753.166933562346
2.4609282700421944,877.5413987590579,877.062943032133,0.2307373785109074,0.3099600574193061,0.1840399425806939,0.35471961163090276,2053.587244590036,5769.229468694203
2.4785063291139244,878.6239635659515,878.1400024357913,0.23243746422790917,0.31057515089476,0.18342484910524,0.35471961163091514,2052.508467341782,5785.228585256798
2.5048734177215195,880.2839322346832,879.7914246831531,0.23509044581729524,0.3115350034773745,0.18246499652262546,0.3547196116309347,2050.8250368241056,5809.110828716733
2.531240506329114,881.9890362022647,881.4876230659141,0.23787193346522004,0.3125413497381445,0.18145865026185548,0.3547196116309555,2049.0600637048833,5832.856746609519
2.557607594936709,883.7413845294641,883.2306912887854,0.2407878871748408,0.31359634601484687,0.18040365398515312,0.35471961163097765,2047.2097661066846,5856.47015017632
2.5839746835443043,885.5431958429098,885.0228320950112,0.24384454078707227,0.3147022477201559,0.1792977522798441,0.35471961163100124,2045.2701883902832,5879.954849738656
2.610341772151899,887.3968038950061,886.8663628488395,0.2470484121965695,0.3158614130378007,0.1781385869621993,0.3547196116310265,2043.2371946721826,5903.314659437493
2.636708860759494,889.304663313059,888.7637213061658,0.2504063134741628,0.3170763065848768,0.17692369341512323,0.3547196116310534,2041.1064624014946,5926.553402028575
2.654286919831224,890.6079786217726,890.0597920677274,0.2527339878366613,0.3179184625415044,0.1760815374584956,0.35471961163107246,2039.6294532610168,5941.980531320742
2.671864978902954,891.9373476456576,891.3817153212574,0.2551354617817524,0.31878731929403276,0.17521268070596727,0.35471961163109234,2038.1056151225446,5957.356698621207
2.680654008438819,892.6120588753121,892.0526265499067,0.2563645738388686,0.31923201381700356,0.17476798618299644,0.3547196116311026,2037.3256908460733,5965.0260292424855
2.689443037974684,893.2935948781607,892.7303102492363,0.2576129840828516,0.3196836904519414,0.1743163095480586,0.35471961163111315,2036.53352104297,5972.6830492210465
2.698232067510549,893.9820630801049,893.4148731716866,0.25888098367640133,0.320142454541933,0.173857545458067,0.3547196116311239,2035.7289209580229,5980.327902497519
2.707021097046414,894.677572701918,894.1064238617049,0.2601688678747843,0.3206084129107615,0.17339158708923855,0.35471961163113497,2034.9117032391118,5987.960733364081
2.715810126582279,895.3802347850344,894.8050726822632,0.26147693605868555,0.32108167387479236,0.17291832612520763,0.35471961163114624,2034.0816779163615,5995.581686485589
2.7245991561181437,896.0901622171535,895.5109318414044,0.26280549176569235,0.3215623472543646,0.17243765274563538,0.3547196116311578,2033.238652382164,6003.190906920818
2.7333881856540088,896.8074697575199,896.2241154187533,0.26415484272023276,0.322050544384622,0.171949455615378,0.35471961163116966,2032.3824313721814,6010.788540143793
2.742177215189874,897.53227406169,896.9447393919227,0.26552530086174886,0.3225463781257067,0.17145362187429333,0.35471961163118176,2031.512816947469,6018.374732065225
2.750966244725739,898.2648462571609,897.6729033520179,0.26691785381854477,0.3230499628324724,0.17095003716752763,0.3547198546016916,2030.6291824155412,6025.94962898818
2.759755274261604,899.007397931916,898.409344167409,0.2683403745273412,0.32356141284261625,0.17043858715738378,0.3547230746449139,2029.7265320606364,6033.5133927562465
2.7773333333333334,900.5267431136165,899.9128411301785,0.2712824261690156,0.324608383330681,0.16939161666931904,0.3547405427032009,2027.8596742060665,6048.608275730805
2.7949113924050635,902.0957397008825,901.463232424131,0.2743591654959245,0.3256882871963511,0.16831171280364887,0.3547738075835335,2025.907351242886,6063.660972640193
2.8124894514767935,903.7181429443851,903.0652589499605,0.2775774734771875,0.32680217922732696,0.16719782077267303,0.354824304042808,2023.8651969012897,6078.673166231089
2.8300675105485236,905.3973575460062,904.7226176102919,0.28094471676873595,0.32795115595456836,0.16604884404543166,0.35489360081685317,2021.7285367223756,6093.646606881809
2.8388565400843886,906.2593341153589,905.5731305131088,0.282686621851639,0.32853915365654607,0.16546084634345393,0.354935826897512,2020.6232232941986,6101.119359007083
2.8476455696202536,907.1368084313801,906.4387805575665,0.2844687408902785,0.32913634981567197,0.16486365018432803,0.35498340398846934,2019.4923923876515,6108.583107790615
2.8564345991561186,908.0302339187806,907.3200151031609,0.2862921317015975,0.3297428910416589,0.16425710895834117,0.355036568199715,2018.3353727725491,6116.038089942109
2.8652236286919837,908.9400770412632,908.2172937343486,0.2881578839920751,0.3303589257072861,0.16364107429271388,0.35509556541585247,2017.1514729834284,6123.484546414665
2.8740126582278487,909.8668175794501,909.1310899196408,0.290067119684444,0.3309846036974557,0.16301539630254433,0.3551606516652499,2015.9399811122337,6130.922722540068
2.8828016877637133,910.8109482066101,910.0618921371312,0.2920209928779902,0.33162007601049576,0.16237992398950418,0.35523209350437274,2014.700164833506,6138.352868162051
2.8915907172995783,911.7729731368679,911.0102046402469,0.2940206891679101,0.3322654941145759,0.16173450588542412,0.35531016841511137,2013.4312718362823,6145.775237757208
2.9003797468354433,912.7534053752491,911.97654794296,0.29606742387248963,0.3329210088976469,0.16107899110235313,0.35539516521343134,2012.132530949025,6153.190090528936
2.9091687763713083,913.7527617229331,912.9614590374564,0.2981624384102036,0.3335867689381698,0.16041323106183025,0.35548738446787453,2010.803154438508,6160.597690451701
2.9179578059071734,914.7715540727085,913.9654913031627,0.3003069935372998,0.3342629176315583,0.15973708236844172,0.35558713892646404,2009.4423423008602,6167.998306228621
2.926746835443039,915.8102744813077,914.9892140100792,0.30250235723260005,0.3349495883730391,0.1590504116269609,0.35569475395054817,2008.0492899491767,6175.392211100844
2.935535864978904,916.8693697064016,916.0332112394688,0.30474978340676145,0.33564689641525,0.15835310358475002,0.3558105679541813,2006.6232017234067,6182.779682405175
2.941395218002814,917.5869349042013,916.7407672048968,0.30627758888114864,0.33611772111088306,0.1578822788891169,0.3558925054926399,2005.6537436725307,6187.701227526463
2.9472545710267237,918.3137882176538,917.45777849417,0.3078294017454406,0.33659332391260294,0.15740667608739708,0.35597835083346074,2004.6690519038716,6192.62012157024
2.9531139240506334,919.0499539695862,918.1844254929631,0.3094055187627376,0.3370737016820634,0.15692629831793659,0.3560682144843096,2003.6689381085246,6197.53644818103
2.958973277074543,919.7953895519495,918.9208883169687,0.31100618318263423,0.3375588290471545,0.15644117095284546,0.35616220982535224,2002.6532479341963,6202.450290542514
2.964832630098453,920.5499556163011,919.6673444532996,0.3126315581123834,0.33804864870991586,0.15595135129008414,0.3562604531669895,2001.621877882345,6207.3617306898495
2.970691983122363,921.3133740036933,920.4239643358566,0.31428168864323647,0.33854305769066,0.15545694230934,0.35636306380298877,2000.574799340639,6212.270848523406
2.979481012658228,922.4739863545417,921.5782829343395,0.3168029606158099,0.33929288450737516,0.15470711549262486,0.3565254368387263,1998.974944219528,6219.6303365629265
2.988270042194093,923.6504909483472,922.7561583798588,0.3193780301185263,0.340051647464763,0.153948352535237,0.3566983377581377,1997.340952259933,6226.985001458942
2.997059071729958,924.8376980256406,923.9574134050603,0.3220032730291574,0.3408175955324062,0.15318240446759374,0.3568822063789677,1995.675123122727,6234.335022800952
3.005848101265823,926.0269971473696,925.1804728044809,0.32467195863528364,0.3415878436107902,0.15241215638920977,0.3570774926192261,1993.9817277333996,6241.680492584152
3.011707454289733,926.8147823546127,926.0057755268169,0.32647007049966453,0.3421016473182698,0.1518983526817302,0.3572142483893532,1992.840748693513,6246.574928888611
3.0175668073136435,927.5928075373846,926.8358378789331,0.3282785568252228,0.3426138038013422,0.15138619619865773,0.35735640487897163,1991.6931866133891,6251.467267420999
3.023426160337553,928.3554567302134,927.6660340833575,0.3300926280638845,0.34312246572129085,0.15087753427870915,0.3575040765613661,1990.5420806665484,6256.357404607187
3.029285513361463,929.0970609885994,928.4898153723552,0.33190747899277834,0.3436258007172576,0.15037419928274243,0.3576573572607981,1989.3904799728398,6261.245189382874
3.035144866385373,929.8127043290068,929.2991254132917,0.33371905193245716,0.3441222761719818,0.14987772382801814,0.3578163115202254,1988.2409593037733,6266.130426325052
3.041004219409283,930.4990453020811,930.085560302269,0.3355247953065341,0.3446109395006859,0.14938906049931416,0.35798096876039254,1987.0951377439194,6271.0128857941145
3.049793248945148,931.4715436913951,931.2073501458196,0.3382217385465444,0.34532903939894927,0.14867096060105076,0.35823862683364993,1985.3838116748511,6278.3308244564505
3.058582278481013,932.3805658803982,932.2496013327022,0.3409104629836718,0.3460314818163848,0.1479685181836152,0.3585089688129449,1983.6777007884466,6285.641138637803
3.067371308016878,933.2383114912199,933.2149251946112,0.3436026281427316,0.3467226671982045,0.1472773328017955,0.35879181268603577,1981.9694066165162,6292.943127248357
3.076160337552743,934.0598168557447,934.116559376758,0.34631125975217353,0.34740745850153243,0.14659254149846754,0.35908700822322287,1980.2506637761137,6300.236269149072
3.0849493670886075,934.85941095248,934.971829432363,0.34904779474727404,0.34809005968832263,0.14590994031167734,0.359394489362305,1978.5142150416511,6307.520232842185
3.0937383966244725,935.6490248626384,935.7974958463432,0.3518210725184286,0.34877363403300093,0.14522636596699903,0.35971429093310764,1976.754451441092,6314.794853581647
3.1025274261603375,936.4378471681366,936.6076042855975,0.35463749592693006,0.34946036815455395,0.14453963184544602,0.3600465428811364,1974.9673100845373,6322.06009885013
3.111316455696203,937.2326418320562,937.4130172211121,0.3575016073787905,0.35015169568208965,0.14384830431791037,0.3603914550263594,1973.1499086206984,6329.316034680297
3.1288945147679326,938.8582199890939,939.0395507775461,0.3633851647221368,0.35155142981099025,0.14244857018900972,0.36112040046827837,1969.4165393338874,6343.8005757864075
3.146472573839663,940.5505057717967,940.7177071132654,0.36948994794905543,0.35297672372849703,0.141023276271503,0.361903825966776,1965.5427927428407,6358.250086406968
3.1552616033755276,941.4261597303819,941.5831440666901,0.37262944214727894,0.3536994753559095,0.14030052464409046,0.3623169478887261,1963.5506491243166,6365.46233177308
3.1640506329113927,942.323149783392,942.4684984123951,0.3758289502691174,0.3544291028815772,0.13957089711842277,0.362744907036932,1961.5204240992334,6372.666605051767
3.1728396624472577,943.2424950355037,943.3750724864108,0.3790898754284458,0.3551656703902441,0.1388343296097559,0.36318814697528257,1959.451227331704,6379.863196896296
3.1816286919831227,944.1851190918998,944.3039617730665,0.38241361147089226,0.3559092247341786,0.13809077526582142,0.363647125146877,1957.3421743669414,6387.05240763575
3.1904177215189877,945.1518939879576,945.2561384040597,0.3858015575145047,0.3566598020071461,0.13734019799285388,0.36412231166088654,1955.1923774045817,6394.234546319573
3.1992067510548527,946.143668098376,946.232505270194,0.3892551257535469,0.3574174311875487,0.13658256881245123,0.36461418847283983,1953.0009403468423,6401.40993020269
3.2079957805907178,947.1612836426455,947.2339305620309,0.3927757453543267,0.3581821361273643,0.13581786387263567,0.3651232488051997,1950.7669563264503,6408.578884507624
3.216784810126583,948.2055875324661,948.2612695248548,0.3963648640887751,0.3589539365861667,0.1350460634138333,0.36564999670437437,1948.4895066700683,6415.741742358547
3.225573839662448,949.2774380069653,949.3153779908192,0.40002394864413693,0.3597328487194552,0.13426715128054478,0.3661949466644347,1946.1676607017816,6422.898844820573
3.234362869198313,950.3777086243523,950.3971206891019,0.4037544841318724,0.36051888525729814,0.1334811147427019,0.3667586232707903,1943.8004760547212,6430.050541002473
3.243151898734178,951.5072905998635,951.5073762707354,0.40755797307906433,0.36131205550742457,0.13268794449257545,0.36734156083218744,1941.3869993110588,6437.197188196726
3.251940928270043,952.6670941050427,952.6470402772163,0.41143593404929596,0.36211236525785717,0.13188763474214282,0.3679443029791079,1938.9262668771196,6444.339152040647
3.260729957805908,953.8580489044957,953.817026820844,0.4153898999636074,0.36291981662043804,0.13108018337956195,0.36856740221276296,1936.417306048807,6451.476806688439
3.2695189873417725,955.081104556045,955.0182694491758,0.41942141614998635,0.3637344078375911,0.1302655921624089,0.3692114193926333,1933.8591362492843,6458.610534987666
3.278308016877637,956.3372303068654,956.2517214792799,0.4235320381268595,0.36455613306410756,0.12944386693589244,0.3698769231527481,1931.250770435445,6465.740728655807
3.287097046413502,957.6274147607395,957.5183559709784,0.4277233291136372,0.36538498212996023,0.1286150178700398,0.3705644892381821,1928.591216677578,6472.867788453891
3.295886075949367,958.9526653564969,958.8191654363601,0.4319968572546798,0.3662209402870365,0.12777905971296352,0.3712746997539493,1925.8794799208804,6479.9921243548515
3.3046751054852326,960.3140076763991,960.1551613388295,0.43635419253944807,0.3670639879410281,0.1269360120589719,0.3720081423188194,1923.1145639397541,6487.114155704657
3.3134641350210976,961.7124845902988,961.5273734081729,0.44079690339962235,0.36791410036885386,0.12608589963114614,0.372765409116728,1920.2954734970797,6494.234311374408
3.3222531645569626,963.1491552335516,962.9368487818945,0.4453265529629077,0.3687712474215575,0.12522875257844254,0.3735470958384996,1917.4212167213366,6501.353029901673
3.3310421940928276,964.6250938118317,964.3846509732086,0.44994469494267797,0.3696353932124113,0.12436460678758869,0.3743538005066116,1914.4908077148018,6508.470759619241
3.3398312236286927,966.1413882230047,965.8718586600635,0.45465286914241504,0.3705064957898668,0.12349350421013323,0.37518612217574293,1911.5032694061745,6515.587958769462
3.3486202531645572,967.6991384843178,967.3995642858473,0.45945259655397364,0.3713845067949655,0.12261549320503452,0.3760446595019089,1908.457636660937,6522.705095602162
3.3574092827004223,969.2994549519474,968.9688724601081,0.46434537402906306,0.3722693711028371,0.12173062889716296,0.37693000917309677,1905.3529596625297,6529.822648454079
3.3661983122362873,970.9434563191729,970.5808981461284,0.469332668503973,0.3731610264479415,0.12083897355205847,0.37784276419452134,1902.1883075770077,6536.941105807522
3.3749873417721523,972.6322673789858,972.2367646212693,0.4744159107585526,0.37405940303276825,0.11994059696723176,0.37878351202191574,1898.9627725132373,6544.060966325938
3.3837763713080173,974.3670165367239,973.9376011954246,0.4795964886917732,0.3749644231197656,0.11903557688023444,0.37975283253669,1895.6754737898402,6551.1827388637885
3.392565400843882,976.1488330583263,975.6845406726527,0.4848757400979429,0.37587600060635834,0.11812399939364168,0.38075129585733836,1892.3255625189938,6558.306942448113
3.4013544303797474,977.9788440400275,977.4787165410088,0.4902549449298287,0.3767940405830018,0.1172059594169982,0.38177945998217083,1888.9122265158123,6565.434106228906
3.4101434599156124,979.858171085743,979.3212598757965,0.49573531703760276,0.3777184388743311,0.11628156112566893,0.38283786825930327,1885.4346955403394,6572.56476939535
3.4189324894514774,981.7879266790973,981.2132959418939,0.5013179953757543,0.3786490815635908,0.1153509184364092,0.3839270466808754,1881.8922468771393,6579.699481054785
3.427721518987342,983.7692102379813,983.1559404814917,0.507004034673861,0.3795858445006709,0.11441415549932908,0.3850475009996865,1878.2842112550918,6586.838800071162
3.4365105485232075,985.8031038407754,985.1502956745569,0.5127943955715153,0.38052859279423684,0.11347140720576315,0.38619971366786743,1874.6099791072063,6593.983294859611
3.4452995780590725,987.8906676149182,987.197445760594,0.5186899342226913,0.3814771802886197,0.1125228197113803,0.38738414059883525,1870.8690071670928,6601.1335431336465
3.4540886075949375,990.0329347803946,989.2984523118913,0.5246913913805243,0.3824314490263354,0.11156855097366461,0.38860120775563173,1867.060825395141,6608.290131601432
3.462877637130802,992.2309063429641,991.4543491503839,0.530799380979772,0.3833912286973171,0.11060877130268286,0.3898513075708083,1863.1850442234356,6615.453655607503
3.471666666666667,994.4855454345796,993.6661369026127,0.5370143782412189,0.38435633607619074,0.10964366392380925,0.39113479520530764,1859.241362104022,6622.62471871622
3.480455696202532,996.7977713014632,995.9347771899949,0.5433367073298925,0.38532657444918067,0.10867342555081928,0.39245198465628167,1855.2295733402975,6629.803932233312
3.489244725738397,999.1684529437357,998.261186454781,0.5497665286071737,0.3863017330325203,0.10769826696747974,0.39380314472647726,1851.1495761760937,6636.991914661813
3.498033755274262,1001.598402414314,1000.64622942566,0.556303825525641,0.38728158638453886,0.10671841361546111,0.3951884948706837,1847.0013811114584,6644.189291088791
3.5068227848101268,1004.0883677890155,1003.0907122309911,0.5629483912247129,0.38826589381392373,0.10573410618607625,0.39660820093775584,1842.7851194082957,6651.396692499359
3.515611814345992,1006.6390258244086,1005.5953751720847,0.5696998148947499,0.3892543987869899,0.10474560121301013,0.3980623708298559,1838.5010517429287,6658.614755014628
3.524400843881857,1009.2509743248966,1008.1608851738008,0.576557467987107,0.39024682833714797,0.10375317166285201,0.3995510501037628,1834.1495769564096,6665.844119050402
3.533189873417722,1011.9247242457859,1010.7878279349708,0.5835204903575786,0.39124289248012667,0.10275710751987331,0.4010742175423281,1829.7312408471012,6673.085428393766
3.541978902953587,1014.660691564609,1013.4766998067053,0.590587776440521,0.39224228363888125,0.10175771636111879,0.4026317807273449,1825.246744943785,6680.339329194925
3.550767932489452,1017.4591889586819,1016.2278994325104,0.5977579615605482,0.3932446760825028,0.10075532391749718,0.4042235716481903,1820.6969551914794,6687.606468872103
3.559556962025317,1020.3204173327046,1019.0417191901898,0.6050294084977943,0.39424972538382574,0.09975027461617426,0.4058493423835106,1816.0829104763568,6694.887494927711
3.568345991561182,1023.2444572460538,1021.9183364817068,0.6124001944311449,0.3952570679008064,0.0987429320991936,0.4075087608958844,1811.40583091082,6702.183053674498
3.577135021097047,1026.2312602951836,1024.8578049233972,0.619868098391274,0.3962663202871172,0.09773367971288277,0.40920140698171936,1806.6671257950911,6709.4937888709765
3.585924050632912,1029.2806405121053,1027.860045495068,0.6274305893615693,0.3972770790377486,0.09672292096225135,0.41092676842054804,1801.868401167683,6716.820340266004
3.594713080168777,1032.3922658451681,1030.9248377124422,0.6350848151698109,0.39828892007573924,0.09571107992426074,0.4126842373692903,1797.0114668541048,6724.163342053147
3.603502109704642,1035.5656497931436,1034.0518108930146,0.6428275923165637,0.3993013983864508,0.09469860161354919,0.4144731070478766,1792.0983429211838,6731.523421236144
3.612291139240507,1038.800143267825,1037.2404355904848,0.650655396887428,0.40031404770606066,0.09368595229393932,0.4162925687627944,1787.1312654436317,6738.901195907607
3.6210801687763716,1042.0949267638555,1040.4900152774414,0.6585643566953588,0.4013263802711549,0.09267361972884507,0.41814170931457484,1782.1126914900792,6746.297273443959
3.6298691983122366,1045.4490029171416,1043.7996783596807,0.6665502447960702,0.40233788663646,0.09166211336354001,0.42001950883392475,1777.0453032378307,6753.71224862044
3.6386582278481017,1048.8611895349177,1047.1683706083775,0.6746084745139362,0.4033480355678427,0.09065196443215734,0.421924839089091,1771.9320111291427,6761.146701650964
3.6474472573839667,1052.3301131811745,1050.5948480981167,0.6827340961077686,0.4043562740177317,0.08964372598226827,0.42385646230411167,1766.7759559869305,6768.601196158539
3.6562362869198317,1055.8542034006666,1054.0776707394352,0.6909217951953138,0.4053620271900579,0.08863797280994208,0.4258130305238573,1761.5805100144935,6776.076277082849
3.6650253164556963,1059.4316876630207,1057.6151964939475,0.6991658930423901,0.4063646987016719,0.08763530129832808,0.427793085557223,1756.3492766120446,6783.5724685325895
3.6738143459915613,1063.060587105534,1061.2055763582184,0.7074603488073423,0.407363670846973,0.08663632915302696,0.4297950595245469,1751.0860889525068,6791.090271591014
3.6826033755274263,1066.738713149069,1064.8467501993125,0.7157987638141315,0.40835830497216097,0.08564169502783904,0.4318172760293678,1745.7950072700557,6798.630162084029
3.691392405063292,1070.463665056044,1068.536443520331,0.7241743879081449,0.40934794196511043,0.08465205803488957,0.43385795196809296,1740.480314827086,6806.192588321034
3.7001814345991564,1074.2328284929185,1072.2721652282964,0.7325801279279784,0.4103319028663542,0.08366809713364584,0.43591519998411693,1735.146512538501,6813.777968819452
3.7089704641350214,1078.0433751518901,1076.0512064695035,0.741008558304401,0.4113094896060551,0.08269051039394489,0.43798703156557095,1729.7983122462158,6821.38669002458
3.7177594936708864,1081.8922634778005,1079.8706405889839,0.7494519337747774,0.4122799858711434,0.08172001412885664,0.44007136077828246,1724.4406286513133,6829.019104037031
3.726548523206752,1085.7762405366898,1083.7273242611839,0.7579022041779053,0.4132426581060042,0.08075734189399576,0.44216600861788,1719.0785699260828,6836.67552636054
3.7353375527426165,1089.6918450521073,1087.6178998284338,0.7663510312708354,0.41419675664922445,0.07980324335077554,0.44426870795739765,1713.7174270430291,6844.356233683301
3.7441265822784815,1093.6353998639756,1091.538788318338,0.7747897791207803,0.41514151383509773,0.07885848616490228,0.4463771019695476,1708.3626798716168,6852.061487803045
3.7529156118143465,1097.6005046232751,1095.4838934452646,0.7832035978904384,0.41607548703379105,0.07792451296620898,0.44848726059151284,1703.0237512700357,6859.79702281231
3.7617046413502115,1101.5805504059438,1099.44675482521,0.7915778022066987,0.4169972867502902,0.0770027132497098,0.4505952601290402,1697.7099597368979,6867.568298938706
3.7704936708860766,1105.5711899076641,1103.4229645904884,0.7999033633099752,0.4179061724050076,0.07609382759499239,0.4526985745434184,1692.4270344071074,6875.375424290523
3.779282700421941,1109.567978535999,1107.408066834975,0.8081711488485902,0.418801401246463,0.07519859875353706,0.4547946424880598,1687.1807701491903,6883.218457290405
3.788071729957806,1113.566366335359,1111.3975210593044,0.8163719520504277,0.4196822303400503,0.07431776965994967,0.45688087587408016,1681.97700905463,6891.097405422153
3.796860759493671,1117.5617003275638,1115.386689880819,0.8244965205330738,0.42054791861400403,0.07345208138599597,0.4589546682478832,1676.821622156599,6899.012223953216
3.8100443037974685,1123.5385658837886,1121.3595283451211,0.8365201589099898,0.4218164511962471,0.0721835488037529,0.46203630545004937,1669.1921083076581,6910.951479142129
3.8232278481012663,1129.4814928349278,1127.3047133280581,0.84832021004795,0.42304680035933245,0.07095319964066757,0.46507523188438976,1661.704470144145,6922.97064672974
3.836411392405064,1135.3737928899477,1133.2055461545222,0.8598657391870731,0.42423655451215597,0.06976344548784405,0.4680626669010655,1654.3783370969797,6935.068881520096
3.8495949367088613,1141.1985638640094,1139.0450762601852,0.8711262897675822,0.42538336725152315,0.06861663274847686,0.470989937675819,1647.233035158622,6947.245050406653
3.858383966244726,1145.035832831293,1142.8956033660972,0.8784602622346233,0.42612293089988246,0.06787706910011754,0.4729038158913686,1642.5793153151785,6955.405101828993
3.867172995780591,1148.830493273889,1146.70621898264,0.8856457062744271,0.4268417545773781,0.06715824542262189,0.4747846962776221,1638.0198431243214,6963.5986696818845
3.875962025316456,1152.5775244009455,1150.4718632153179,0.8926741977089564,0.4275392136370332,0.06646078636296679,0.4766301556017375,1633.559964088051,6971.82520233192
3.884751054852321,1156.2719380950718,1154.1875037058853,0.8995375276619924,0.42821470778122245,0.06578529221877755,0.4784378241780314,1629.2048870901374,6980.084090846813
3.893540084388186,1159.90879324945,1157.8481507173676,0.906227722541488,0.42886766329874315,0.06513233670125683,0.4802053908605517,1624.9596717164598,6988.374669470081
3.902329113924051,1163.4832095875202,1161.4488717509257,0.9127370623006067,0.42949753526118495,0.06450246473881502,0.4819306074535788,1620.8292166675951,6996.696216273956
3.911118143459916,1166.990380842052,1164.9848055682623,0.919058096848209,0.4301038096717947,0.06389619032820534,0.4836112925000981,1616.8182493456607,7005.047953984731
3.919907172995781,1170.425587168192,1168.4511754938903,0.925183660484142,0.4306860055618151,0.06331399443818488,0.4852453344081697,1612.9313166945053,7013.429050973158
3.928696202531646,1173.7842066612864,1171.8433018707312,0.9311068842363861,0.43124367703150973,0.06275632296849025,0.4868306938735019,1609.17277737126,7021.8386224008145
3.937485232067511,1177.061725844383,1175.156613540016,0.9368212059749318,0.43177641523586396,0.062223584764136,0.4883654055529648,1605.5467953286495,7030.275731511682
3.946274261603376,1180.253748981644,1178.386658211966,0.9423203781699677,0.4322838503184254,0.061716149681574614,0.4898475789376737,1602.0573348920911,7038.739391056374
3.955063291139241,1183.3560060613595,1181.529111586468,0.9475984731479283,0.43276565330109773,0.061234346698902285,0.49127539836484097,1598.7081574245044,7047.228564834528
3.9638523206751066,1186.364359274361,1184.5797850719396,0.9526498856759397,0.4332215379432299,0.0607784620567701,0.4926471220937431,1595.5028196863732,7055.742169338852
3.972641350210971,1189.274807788304,1187.5346319343728,0.9574693326701249,0.43365126259044806,0.06034873740955193,0.49396108035135333,1592.444674020834,7064.279075482012
3.9814303797468362,1192.0834905825016,1190.3897516851196,0.9620518497716953,0.4340546320429866,0.059945367957013405,0.49521567222523516,1589.5368705262977,7072.838110384921
3.9902194092827012,1194.7866870574142,1193.141392482516,0.9663927844603653,0.43443149948569826,0.05956850051430176,0.49640936124195595,1586.7823614262786,7081.418059201964
3.999008438818566,1197.3808150611735,1195.785951274857,0.9704877852680901,0.43478176853888845,0.0592182314611116,0.49754066941376757,1584.1839079137426,7090.017666954967
4.007797468354431,1199.862425873018,1198.319971344623,0.9743327865033338,0.4351053955128341,0.05889460448716586,0.49860816945730485,1581.744089844213,7098.635640343075
4.013656821378341,1201.4526772871861,1199.946264619169,0.9767553450662086,0.4353063490252988,0.05869365097470122,0.4992837011426496,1580.2068726121306,7104.390503792218
4.019516174402251,1202.9904848196672,1201.5210036784354,0.9790640327598036,0.4354954832461846,0.05850451675381541,0.4999298534740935,1578.7419113267863,7110.15253668071
4.025375527426161,1204.4749116899463,1203.043263512938,0.9812578264697353,0.43567282784604205,0.05832717215395795,0.5005462266168201,1577.3498551981043,7115.92132958185
4.031234880450071,1205.905038069558,1204.51214146522,0.9833357406806575,0.4358384250374498,0.05816157496255022,0.5011324217973705,1576.0313295778078,7121.696466549803
4.03709423347398,1207.2799575086601,1205.9267546230858,0.9852968212856681,0.4359923302402831,0.058007669759716905,0.5016880383986099,1574.786939887617,7127.477525276656
4.042953586497891,1208.5987725320824,1207.2862366109628,0.9871401382073202,0.4361346128884804,0.05786538711151962,0.5022126704832323,1573.6172763015322,7133.264077220462
4.0488129395218015,1209.8605892172272,1208.5897336647736,0.98886477655978,0.4362653574246294,0.05773464257537057,0.5027059026016297,1572.5229193538241,7139.055687697331
4.054672292545711,1211.064510506616,1209.836399844535,0.9904698259961776,0.4363846645466214,0.057615335453378574,0.5031673046910944,1571.504446698597,7144.851915929077
4.060531645569621,1212.2096279258826,1211.0253911986542,0.9919543677695575,0.4364926527974045,0.057507347202595496,0.5035964258046988,1570.5624413201685,7150.652315035755
4.069320675105486,1213.815002897305,1212.6988771551246,0.9939531542825596,0.43663372125902433,0.05736627874097567,0.5041785211992907,1569.2941256153895,7159.359741298562
4.07810970464135,1215.2826649546475,1214.2377457803743,0.9956752731387326,0.43675020581565527,0.05724979418434476,0.5046851017397995,1568.201367396054,7168.073975067426
4.086898734177215,1216.6089970964551,1215.6389037661675,0.997116904670047,0.43684282056890084,0.05715717943109916,0.5051140713631945,1567.2865904052264,7176.79342568126
4.08982841068917,1217.0190075759524,1216.074782596116,0.9975343632099859,0.43686853863452546,0.057131461365474576,0.5052393904021266,1567.0216950705549,7179.700788119926
4.092758087201125,1217.4126932531394,1216.4948560201267,0.997919972031306,0.436891744016152,0.05710825598384802,0.5053556988507171,1566.777009747335,7182.608488135955
4.09568776371308,1217.7898737269295,1216.89898461642,0.9982735256965383,0.436912481054085,0.05708751894591501,0.5054628780410876,1566.552664794445,7185.516463738549
4.098617440225035,1218.150356154984,1217.2870226018383,0.9985948022596407,0.4369307990232982,0.057069200976701824,0.5055607983978648,1566.348801046161,7188.4246523033535
4.101547116736991,1218.4939337393057,1217.658817362923,0.9988835619703882,0.43694675315368825,0.057053246846311745,0.5056493179491733,1566.1655706342756,7191.332990524944
4.104476793248946,1218.8203844215877,1218.0142093102193,0.9991395469598829,0.4369604060081622,0.05703959399183774,0.5057282808347653,1566.003137187656,7194.241414364016
4.1074064697609005,1219.1294702906544,1218.353032423254,0.9993624832249235,0.4369718293980003,0.05702817060199971,0.505797516108605,1565.8616745730765,7197.149858990928
4.110336146272855,1219.4209388542056,1218.675116230606,0.9995520878055631,0.4369811071394229,0.05701889286057708,0.5058568375791537,1565.74136234075,7200.058258730125
4.11326582278481,1219.6945289095952,1218.9802908031834,0.9997080878465328,0.4369883391973563,0.057011660802643735,0.5059060465620534,1565.6423736290387,7202.966547016867
4.11912517580872,1220.1871237786847,1219.5393212286178,0.9999186029638689,0.4369971915907758,0.0570028084092242,0.5059733588430767,1565.5087927650125,7208.782518612524
4.122054852320675,1220.405932013408,1219.7930456776317,0.9999735641604793,0.43699918023223505,0.05700081976776493,0.5059912552421779,1565.4739175302832,7211.690065120565
4.123519690576653,1220.508621263478,1219.9135256674651,0.9999890764801566,0.4369996838345725,0.057000316165427466,0.5059963640195736,1565.4640742986344,7213.143698758735
4.124252109704642,1220.55836841562,1219.9722030170274,0.99999406750203,0.4369998351050219,0.05700016489497813,0.5059980185080691,1565.4609072813546,7213.87047707911
4.124435214486639,1220.570646324324,1219.9867124412508,0.9999950469485523,0.4369998638268902,0.05700013617310977,0.5059983441513715,1565.4602857805598,7214.0521674835445
4.124618319268636,1220.5828626297148,1220.0011586101052,0.9999959240740609,0.4369998892035979,0.05700011079640211,0.5059986361199436,1565.4597292068336,7214.233856188472
4.124709871659634,1220.5889480407102,1220.0083581017523,0.9999963251821403,0.43699990068676997,0.05700009931323005,0.5059987697582558,1565.4594746865669,7214.324699899174
4.124801424050633,1220.5950184984329,1220.0155419379616,0.999996701848048,0.43699991139371086,0.05700008860628915,0.505998895329586,1565.4592356759058,7214.415543179702
4.124892976441632,1220.6010741697469,1220.022710176785,0.9999970544942217,0.4369999213454686,0.0570000786545314,0.5059990129657248,1565.4590119067952,7214.506386028324
4.124984528832631,1220.607115230997,1220.0298628790358,0.9999973835662124,0.4369999305636221,0.05700006943637792,0.5059991228062943,1565.458803096514,7214.597228443335
4.1250048738084075,1220.6084557235204,1220.0314502648714,0.9999974535386873,0.4369999325146906,0.057000067485309364,0.5059991461713684,1565.45875869598,7214.617415587614
4.125025218784185,1220.609795505842,1220.0330368873238,0.9999975223754558,0.43699993443086926,0.05700006556913075,0.5059991691604325,1565.4587150161,7214.63760271038
4.125045563759963,1220.6111345801053,1220.0346227471193,0.999997590081916,0.436999936312406,0.057000063687593965,0.505999191775191,1565.4586720534492,7214.657789811612
4.12506590873574,1220.6124729484811,1220.0362078449932,0.9999976566635316,0.43699993815955057,0.05700006184044943,0.5059992140173716,1565.4586298045608,7214.677976891293
4.125086253711517,1220.613810613168,1220.037792181688,0.9999977221258342,0.4369999399725539,0.05700006002744614,0.5059992358887241,1565.4585882659242,7214.698163949405
4.125106598687295,1220.615147576392,1220.0393757579545,0.9999977864744232,0.4369999417516684,0.05700005824833161,0.5059992573910225,1565.4585474339865,7214.71835098593
4.125126943663073,1220.6164838404077,1220.0409585745506,0.9999978497149676,0.43699994349714816,0.05700005650285188,0.5059992785260633,1565.4585073051508,7214.738538000848
4.12514728863885,1220.617819407499,1220.0425406322431,0.9999979118532069,0.4369999452092485,0.057000054790751466,0.5059992992956678,1565.4584678757749,7214.7587249941425
4.125167633614627,1220.6191542799786,1220.0441219318068,0.9999979728949516,0.4369999468882266,0.057000053111773405,0.5059993197016814,1565.4584291421718,7214.7789119657955
4.125187978590405,1220.620488460189,1220.0457024740247,0.9999980328460852,0.4369999485343408,0.05700005146565919,0.5059993397459742,1565.4583911006082,7214.79909891579
4.1252083235661825,1220.621821950503,1220.047282259688,0.9999980917125646,0.4369999501478512,0.05700004985214878,0.5059993594304414,1565.458353747304,7214.819285844107
4.1252286685419595,1220.623154753324,1220.0488612895967,0.9999981495004219,0.4369999517290194,0.05700004827098056,0.5059993787570036,1565.4583170784322,7214.839472750728
4.125249013517737,1220.6244868710862,1220.0504395645594,0.9999982062157647,0.43699995327810864,0.05700004672189136,0.5059993977276076,1565.4582810901165,7214.859659635637
4.125269358493515,1220.6258183062562,1220.052017085393,0.9999982618647782,0.43699995479538356,0.057000045204616406,0.5059994163442264,1565.4582457784325,7214.879846498816
4.125289703469292,1220.6271490613317,1220.0535938529233,0.999998316453726,0.4369999562811107,0.057000043718889316,0.5059994346088597,1565.4582111394056,7214.9000333402455
4.12531004844507,1220.6284791388439,1220.0551698679858,0.9999983699889512,0.43699995773555794,0.057000042264442094,0.5059994525235345,1565.458177169011,7214.920220159911
4.125330393420848,1220.6298085413564,1220.0567451314243,0.999998422476878,0.4369999591589949,0.057000040841005094,0.5059994700903054,1565.458143863172,7214.940406957793
4.125350738396625,1220.6311372714672,1220.0583196440916,0.9999984739240124,0.436999960551693,0.057000039448307026,0.5059994873112551,1565.4581112177602,7214.960593733875
4.125371083372403,1220.632465331808,1220.059893406851,0.9999985243369445,0.4369999619139251,0.057000038086074886,0.5059995041884948,1565.4580792285942,7214.980780488138
4.1253914283481805,1220.6337927250452,1220.0614664205737,0.999998573722349,0.43699996324596596,0.05700003675403403,0.5059995207241649,1565.4580478914384,7215.000967220568
4.1254117733239575,1220.6351194538802,1220.0630386861408,0.9999986220869869,0.4369999645480919,0.057000035451908064,0.505999536920435,1565.4580172020032,7215.021153931144
4.125432118299735,1220.6364455210514,1220.064610204444,0.9999986694377065,0.4369999658205811,0.05700003417941889,0.5059995527795048,1565.4579871559422,7215.041340619852
4.125452463275513,1220.6377709293326,1220.066180976384,0.9999987157814457,0.43699996706371336,0.05700003293628664,0.5059995683036045,1565.4579577488535,7215.061527286674
4.12547280825129,1220.6390956815346,1220.067751002871,0.9999987611252327,0.4369999682777703,0.057000031722229685,0.5059995834949954,1565.4579289762773,7215.081713931592
4.125493153227067,1220.6404197805064,1220.0693202848267,0.9999988054761875,0.4369999694630354,0.057000030536964626,0.5059995983559701,1565.4579008336957,7215.1019005545895
4.125513498202845,1220.641743229135,1220.0708888231816,0.9999988488415236,0.4369999706197938,0.05700002938020625,0.5059996128888531,1565.4578733165315,7215.122087155652
4.125533843178623,1220.643066030346,1220.0724566188767,0.9999988912285499,0.4369999717483325,0.05700002825166751,0.5059996270960019,1565.4578464201468,7215.14227373476
4.1255541881544,1220.6443881871048,1220.074023672864,0.9999989326446718,0.4369999728489405,0.05700002715105953,0.5059996409798068,1565.4578201398424,7215.162460291897
4.125574533130177,1220.645709702417,1220.0755899861063,0.9999989730973926,0.4369999739219084,0.05700002607809154,0.5059996545426918,1565.4577944708574,7215.182646827048
4.125594878105955,1220.6470305793287,1220.0771555595759,0.9999990125943158,0.43699997496752907,0.05700002503247094,0.5059996677871151,1565.4577694083669,7215.202833340197
4.1256152230817325,1220.6483508209278,1220.0787203942573,0.9999990511431462,0.43699997598609686,0.05700002401390315,0.5059996807155702,1565.4577449474816,7215.2230198313255
4.125635568057509,1220.6496704303443,1220.0802844911454,0.9999990887516923,0.43699997697790827,0.05700002302209174,0.5059996933305853,1565.4577210832476,7215.243206300417
4.125655913033286,1220.6509894107512,1220.081847851246,0.9999991254278672,0.4369999779432617,0.057000022056738285,0.505999705634725,1565.4576978106427,7215.263392747457
4.125676258009064,1220.6523077653646,1220.0834104755772,0.9999991611796908,0.4369999788824576,0.057000021117542383,0.5059997176305906,1565.4576751245784,7215.283579172429
4.125696602984842,1220.653625497446,1220.0849723651681,0.9999991960152916,0.43699997979579835,0.05700002020420166,0.5059997293208208,1565.4576530198967,7215.303765575316
4.125716947960619,1220.6549426103006,1220.086533521059,0.999999229942909,0.43699998068358825,0.05700001931641173,0.505999740708092,1565.4576314913695,7215.323951956102
4.125737292936396,1220.656259107281,1220.0880939443023,0.999999262970894,0.43699998154613384,0.05700001845386615,0.5059997517951192,1565.4576105336973,7215.344138314772
4.125757637912174,1220.6575749917856,1220.0896536359626,0.9999992951077126,0.4369999823837436,0.05700001761625643,0.505999762584657,1565.4575901415087,7215.364324651311
4.125777982887952,1220.6588902672602,1220.0912125971172,0.9999993263619467,0.436999983196728,0.05700001680327199,0.5059997730794996,1565.4575703093578,7215.384510965701
4.125798327863729,1220.660204937199,1220.092770828854,0.9999993567422965,0.43699998398539985,0.057000016014600134,0.5059997832824825,1565.4575510317238,7215.404697257927
4.125818672839506,1220.6615190051464,1220.0943283322754,0.9999993862575828,0.43699998475007396,0.05700001524992604,0.5059997931964818,1565.4575323030097,7215.424883527974
4.1258390178152835,1220.6628324746948,1220.0958851084952,0.9999994149167487,0.4369999854910673,0.05700001450893274,0.5059998028244161,1565.4575141175408,7215.4450697758275
4.125859362791061,1220.6641453494888,1220.09744115864,0.9999994427288622,0.43699998620869895,0.05700001379130104,0.5059998121692474,1565.4574964695628,7215.465256001471
4.125879707766838,1220.6654576332248,1220.0989964838504,0.9999994697031178,0.4369999869032904,0.05700001309670959,0.5059998212339807,1565.4574793532415,7215.485442204888
4.125900052742616,1220.6667693296517,1220.10055108528,0.9999994958488394,0.4369999875751652,0.05700001242483476,0.5059998300216658,1565.4574627626605,7215.505628386066
4.125920397718394,1220.6680804425714,1220.1021049640947,0.9999995211754822,0.4369999882246493,0.05700001177535069,0.5059998385353978,1565.4574466918205,7215.525814544988
4.125940742694171,1220.669390975841,1220.1036581214753,0.9999995456926352,0.4369999888520708,0.0570000111479292,0.5059998467783178,1565.4574311346362,7215.546000681638
4.125961087669949,1220.6707009333732,1220.1052105586157,0.9999995694100235,0.43699998945776014,0.05700001054223983,0.505999854753614,1565.4574160849368,7215.566186796005
4.125981432645727,1220.6720103191367,1220.1067622767239,0.9999995923375112,0.43699999004205026,0.05700000995794975,0.5059998624645221,1565.4574015364633,7215.586372888071
4.126001777621504,1220.6733191371586,1220.1083132770227,0.9999996144851032,0.4369999906052762,0.05700000939472376,0.505999869914327,1565.4573874828668,7215.606558957822
4.1260221225972815,1220.6746273915237,1220.1098635607489,0.9999996358629485,0.43699999114777577,0.05700000885222426,0.5059998771063628,1565.4573739177079,7215.626745005245
4.126042467573059,1220.675935086377,1220.1114131291536,0.9999996564813421,0.43699999166988873,0.05700000833011123,0.5059998840440145,1565.4573608344535,7215.646931030323
4.126062812548836,1220.6772422259241,1220.1129619835035,0.9999996763507284,0.43699999217195784,0.05700000782804216,0.5059998907307183,1565.4573482264761,7215.667117033043
4.126083157524614,1220.6785488144326,1220.1145101250795,0.9999996954817039,0.43699999265432793,0.057000007345672093,0.5059998971699627,1565.4573360870525,7215.687303013391
4.126103502500392,1220.679854856233,1220.116057555179,0.9999997138850191,0.4369999931173465,0.057000006882653505,0.5059999033652902,1565.4573244093604,7215.707488971353
4.126123847476169,1220.68116035572,1220.1176042751138,0.9999997315715826,0.43699999356136365,0.05700000643863636,0.5059999093202975,1565.4573131864777,7215.727674906914
4.126144192451946,1220.6824653173542,1220.1191502862118,0.9999997485524637,0.436999993986732,0.05700000601326799,0.5059999150386364,1565.4573024113809,7215.747860820061
4.126164537427724,1220.683769745662,1220.1206955898178,0.9999997648388947,0.4369999943938068,0.05700000560619316,0.505999920524016,1565.4572920769424,7215.76804671078
4.126184882403502,1220.685073645238,1220.1222401872917,0.9999997804422751,0.4369999947829461,0.05700000521705394,0.5059999257802024,1565.4572821759289,7215.788232579057
4.126205227379279,1220.6863770207456,1220.12378408001,0.999999795374174,0.43699999515451027,0.05700000484548974,0.5059999308110208,1565.457272700999,7215.808418424879
4.126225572355056,1220.68767987692,1220.1253272693666,0.9999998096463337,0.43699999550886276,0.05700000449113725,0.5059999356203564,1565.4572636447022,7215.828604248231
4.1262459173308335,1220.6889822185665,1220.1268697567727,0.999999823270673,0.43699999584636956,0.0570000041536304,0.5059999402121552,1565.457254999475,7215.848790049104
4.126256089818723,1220.6896331979635,1220.1276407376895,0.9999998298436836,0.4369999960089211,0.05700000399107893,0.5059999424277286,1565.4572508286178,7215.858882941105
4.126266262306611,1220.6902840505645,1220.1284115436556,0.9999998362592903,0.4369999961673997,0.05700000383260032,0.5059999445904256,1565.4572467576406,7215.86897582748
4.1262764347945,1220.6909347769906,1220.1291821748518,0.9999998425190342,0.43699999632185194,0.05700000367814804,0.5059999467007579,1565.4572427855649,7215.879068708228
4.126286607282388,1220.691585377868,1220.1299526314608,0.9999998486244678,0.4369999964723246,0.05700000352767534,0.5059999487592398,1565.4572389114055,7215.889161583348
4.126296779770277,1220.6922358538282,1220.130722913666,0.9999998545771556,0.4369999966188647,0.057000003381135325,0.5059999507663909,1565.45723513417,7215.899254452837
4.126306952258165,1220.692886205507,1220.1314930216522,0.9999998603786739,0.4369999967615191,0.0570000032384809,0.5059999527227342,1565.457231452858,7215.909347316695
4.126317124746054,1220.6935364335452,1220.1322629556046,0.9999998660306114,0.4369999969003352,0.0570000030996648,0.5059999546287973,1565.4572278664614,7215.919440174919
4.126327297233943,1220.6941865385886,1220.1330327157107,0.9999998715345685,0.4369999970353604,0.05700000296463956,0.5059999564851118,1565.4572243739647,7215.929533027509
4.1263374697218325,1220.6948365212882,1220.1338023021583,0.9999998768921581,0.43699999716664245,0.05700000283335755,0.5059999582922133,1565.4572209743446,7215.939625874463
4.126347642209721,1220.6954863822996,1220.1345717151366,0.9999998821050052,0.43699999729422906,0.057000002705770936,0.5059999600506424,1565.4572176665697,7215.949718715777
4.126357814697609,1220.6961361222834,1220.1353409548362,0.9999998871747476,0.4369999974181683,0.057000002581831695,0.5059999617609434,1565.4572144496008,7215.959811551452
4.126367987185498,1220.6967857419063,1220.1361100214485,0.9999998921030359,0.4369999975385084,0.05700000246149165,0.5059999634236652,1565.4572113223905,7215.969904381484
4.126378159673386,1220.6974352418395,1220.1368789151663,0.999999896891533,0.43699999765529757,0.057000002344702386,0.5059999650393611,1565.457208283884,7215.979997205875
4.126388332161275,1220.6980846227589,1220.1376476361838,0.999999901541915,0.43699999776858467,0.05700000223141533,0.5059999666085889,1565.4572053330176,7215.990090024622
4.126398504649163,1220.6987338853467,1220.1384161846963,0.9999999060558706,0.43699999787841826,0.05700000212158171,0.5059999681319111,1565.457202468719,7216.000182837723
4.126408677137053,1220.69938303029,1220.1391845608998,0.9999999104351025,0.43699999798484745,0.05700000201515255,0.5059999696098942,1565.4571996899087,7216.010275645176
4.126418849624942,1220.700032058281,1220.1399527649926,0.9999999146813257,0.43699999808792134,0.05700000191207868,0.5059999710431101,1565.4571969954982,7216.020368446981
4.126429022112831,1220.700680970018,1220.140720797173,0.9999999187962693,0.43699999818768925,0.057000001812310755,0.5059999724321347,1565.45719438439,7216.030461243135
4.126439194600719,1220.7013297662043,1220.1414886576415,0.9999999227816756,0.4369999982842008,0.0570000017157992,0.5059999737775489,1565.457191855479,7216.040554033637
4.1264493670886075,1220.701978447549,1220.1422563465994,0.9999999266393005,0.4369999983775057,0.057000001622494266,0.5059999750799383,1565.4571894076507,7216.050646818486
4.126459539576496,1220.7026270147662,1220.1430238642497,0.9999999303709143,0.436999998467654,0.057000001532346,0.5059999763398934,1565.4571870397817,7216.0607395976795
4.1264697120643845,1220.7032754685772,1220.1437912107963,0.9999999339783006,0.43699999855469573,0.05700000144530424,0.5059999775580092,1565.4571847507407,7216.070832371217
4.126479884552273,1220.7039238097072,1220.1445583864445,0.9999999374632573,0.4369999986386814,0.057000001361318615,0.5059999787348859,1565.4571825393864,7216.0809251390965
4.126490057040162,1220.7045720388885,1220.1453253914012,0.9999999408275969,0.43699999871966144,0.05700000128033857,0.5059999798711288,1565.4571804045686,7216.091017901318
4.126500229528052,1220.705220156858,1220.1460922258736,0.9999999440731457,0.43699999879768664,0.057000001202313334,0.5059999809673479,1565.4571783451286,7216.101110657879
4.12651040201594,1220.7058681643605,1220.1468588900718,0.9999999472017451,0.4369999988728081,0.05700000112719192,0.5059999820241582,1565.4571763598983,7216.111203408777
4.126520574503829,1220.7065160621446,1220.147625384206,0.9999999502152509,0.43699999894507685,0.05700000105492314,0.5059999830421802,1565.4571744476998,7216.121296154012
4.126530746991717,1220.707163850966,1220.1483917084884,0.9999999531155337,0.4369999990145444,0.05700000098545559,0.5059999840220392,1565.457172607346,7216.131388893582
4.126540919479606,1220.7078115315867,1220.1491578631321,0.9999999559044793,0.43699999908126236,0.057000000918737664,0.5059999849643657,1565.4571708376404,7216.1414816274855
4.126551091967495,1220.7084591047742,1220.1499238483518,0.9999999585839884,0.4369999991452824,0.05700000085471754,0.505999985869796,1565.4571691373772,7216.151574355723
4.126561264455384,1220.7091065713025,1220.150689664364,0.9999999611559773,0.43699999920665683,0.0570000007933432,0.5059999867389708,1565.45716750534,7216.1616670782905
4.126571436943273,1220.709753931952,1220.151455311386,0.9999999636223774,0.43699999926543764,0.05700000073456235,0.5059999875725372,1565.4571659403034,7216.171759795187
4.126581609431161,1220.7104011875094,1220.1522207896362,0.9999999659851362,0.4369999993216775,0.05700000067832255,0.5059999883711469,1565.4571644410316,7216.181852506413
4.12659178191905,1220.7110483387676,1220.1529860993355,0.9999999682462163,0.4369999993754289,0.0570000006245711,0.5059999891354576,1565.4571630062792,7216.191945211965
4.126601954406938,1220.7116953865257,1220.1537512407058,0.9999999704075967,0.4369999994267449,0.057000000573255105,0.5059999898661321,1565.457161634791,7216.202037911843
4.126612126894828,1220.7123423315907,1220.1545162139696,0.9999999724712728,0.4369999994756786,0.057000000524321415,0.5059999905638395,1565.4571603253,7216.212130606046
4.126622299382717,1220.7129891747752,1220.1552810193523,0.9999999744392574,0.43699999952228336,0.05700000047771664,0.5059999912292542,1565.4571590765295,7216.222223294572
4.126632471870606,1220.7136359168985,1220.1560456570799,0.9999999763135781,0.43699999956661284,0.05700000043338721,0.5059999918630569,1565.4571578871926,7216.23231597742
4.126642644358494,1220.714282558787,1220.15681012738,0.9999999780962799,0.4369999996087207,0.057000000391279296,0.505999992465933,1565.457156755992,7216.242408654587
4.1266528168463825,1220.7149291012736,1220.1575744304814,0.9999999797894241,0.4369999996486611,0.05700000035133888,0.5059999930385746,1565.4571556816193,7216.252501326074
4.126662989334271,1220.715575545198,1220.1583385666154,0.999999981395089,0.43699999968648834,0.05700000031351167,0.5059999935816792,1565.4571546627562,7216.262593991879
4.12667316182216,1220.7162218914073,1220.1591025360135,0.9999999829153702,0.43699999972225684,0.05700000027774319,0.5059999940959508,1565.4571536980727,7216.272686652001
4.12668333431005,1220.7168681407552,1220.1598663389098,0.9999999843523807,0.43699999975602133,0.057000000243978693,0.5059999945820988,1565.4571527862279,7216.282779306438
4.126693506797938,1220.7175142941023,1220.1606299755392,0.9999999857082505,0.43699999978783677,0.05700000021216322,0.505999995040839,1565.4571519258704,7216.292871955189
4.126703679285827,1220.7181603523172,1220.1613934461388,0.9999999869851285,0.43699999981775844,0.05700000018224156,0.5059999954728935,1565.4571511156366,7216.302964598253
4.126713851773715,1220.7188063162753,1220.162156750947,0.9999999881851802,0.4369999998458417,0.057000000154158265,0.5059999958789908,1565.4571503541522,7216.313057235629
4.126724024261604,1220.7194521868591,1220.1629198902035,0.9999999893105904,0.43699999987214233,0.057000000127857664,0.5059999962598651,1565.4571496400313,7216.323149867315
4.126734196749493,1220.7200979649592,1220.1636828641501,0.9999999903635615,0.4369999998967162,0.05700000010328382,0.5059999966162578,1565.457148971876,7216.333242493311
4.126744369237382,1220.720743651473,1220.1644456730298,0.9999999913463148,0.4369999999196194,0.05700000008038056,0.5059999969489161,1565.4571483482769,7216.343335113616
4.126754541725271,1220.721389247306,1220.1652083170877,0.9999999922610903,0.43699999994090855,0.05700000005909147,0.5059999972585941,1565.4571477678126,7216.353427728227
4.126764714213159,1220.7220347533712,1220.1659707965698,0.999999993110147,0.43699999996064015,0.05700000003935987,0.5059999975460525,1565.45714722905,7216.363520337143
4.126774886701048,1220.7226801705895,1220.1667331117249,0.9999999938957631,0.4369999999788711,0.05700000002112886,0.5059999978120585,1565.4571467305427,7216.373612940365
4.126795231676825,1220.723970742208,1220.1682572500533,0.9999999952858836,0.4370000000110604,0.05699999998893963,0.5059999982828168,1565.4571458484518,7216.393798129718
4.126815576652603,1220.725260969687,1220.1697807340927,0.999999996450069,0.43700000003793665,0.056999999962063355,0.5059999986771446,1565.457145109726,7216.413983296277
4.1268359216283805,1220.7265508606818,1220.1713035658886,0.9999999974072576,0.43700000005996453,0.05699999994003549,0.505999999001429,1565.457144502349,7216.434168440033
4.1268562666041575,1220.7278404229796,1220.1728257475158,0.999999998176715,0.4370000000776127,0.0569999999223873,0.5059999992621715,1565.4571440140953,7216.454353560977
4.1268766115799345,1220.7291296645044,1220.1743472810774,0.9999999987780412,0.43700000009135415,0.05699999990864585,0.5059999994659907,1565.457143632528,7216.474538659102
4.126886784067823,1220.7297741674904,1220.1751078054988,0.9999999990218731,0.4370000000969088,0.05699999990309119,0.5059999995486548,1565.4571434778063,7216.484631199604
4.126896956555712,1220.730418593317,1220.1758681687056,0.9999999992311768,0.4370000001016661,0.05699999989833392,0.5059999996196239,1565.4571433449942,7216.4947237343995
4.1269020427996566,1220.730740777617,1220.1762482899383,0.9999999993236757,0.43700000010376455,0.05699999989623546,0.5059999996509917,1565.4571432862995,7216.499769999656
4.126907129043602,1220.731062943014,1220.176628370969,0.9999999994084993,0.4370000001056863,0.056999999894313716,0.5059999996797593,1565.4571432324753,7216.504816263486
4.126912215287546,1220.7313850896378,1220.1770084118318,0.9999999994859695,0.4370000001074389,0.0569999998925611,0.5059999997060355,1565.4571431833172,7216.509862525888
4.12691730153149,1220.7317072176195,1220.1773884125614,0.9999999995564095,0.43700000010903,0.05699999989097,0.5059999997299297,1565.45714313862,7216.514908786861
4.126922387775434,1220.7320293270902,1220.177768373192,0.999999999620144,0.4370000001104672,0.05699999988953281,0.5059999997515517,1565.4571430981775,7216.519955046408
4.126927474019379,1220.7323514181815,1220.1781482937583,0.9999999996774989,0.4370000001117581,0.05699999988824189,0.505999999771012,1565.4571430617837,7216.525001304526
4.126932560263323,1220.732673491026,1220.1785281742948,0.9999999997288017,0.4370000001129104,0.05699999988708959,0.505999999788421,1565.4571430292297,7216.530047561217
4.126937646507267,1220.7329955457565,1220.1789080148365,0.9999999997743814,0.43700000011393175,0.05699999988606825,0.5059999998038905,1565.4571430003075,7216.535093816479
4.1269986814346,1220.7368588388408,1220.183462994546,0.9999999999966177,0.4370000001187887,0.05699999988121132,0.505999999879439,1565.457142859289,7216.5956487682015
4.1270597163619325,1220.74071976942,1220.1880122800935,1.0000000000015163,0.43700000011871765,0.056999999881282355,0.5059999998812823,1565.4571428561806,7216.656203514081
4.127181786216597,1220.7484348355829,1220.1970939175196,1.0000000000015163,0.4370000001183546,0.056999999881645426,0.5059999998816455,1565.4571428561806,7216.777312387619
4.127425925925927,1220.7638381141896,1220.2151902337641,1.0000000000015163,0.43700000011762824,0.05699999988237175,0.5059999998823718,1565.4571428561806,7217.019527657039
4.127914205344585,1220.7945397002134,1220.251121109041,1.0000000000015163,0.4370000001161749,0.056999999883825106,0.5059999998838252,1565.4571428561806,7217.503948247857
4.128890764181904,1220.8555418320884,1220.3219826952495,1.0000000000015163,0.43700000011326534,0.05699999988673467,0.5059999998867347,1565.4571428561806,7218.472749349401
4.129867323019222,1220.9160432571532,1220.3915953161927,1.0000000000015163,0.437000000110352,0.056999999889648004,0.5059999998896481,1565.4571428561806,7219.441496492339
4.13084388185654,1220.9760820806841,1220.4600537341967,1.0000000000015163,0.4370000001074349,0.05699999989256509,0.505999999892565,1565.4571428561806,7220.410189097813
4.132308720112517,1221.0653492439278,1220.56076699032,1.0000000000015163,0.4370000001030523,0.056999999896947706,0.5059999998969477,1565.4571428561806,7221.863124594695
4.133773558368495,1221.1537619987744,1220.6593469445631,1.0000000000015163,0.4370000000986613,0.05699999990133867,0.5059999999013387,1565.4571428561806,7223.315934572066
4.133819334563995,1221.1565122049294,1220.6623958666569,1.0000000000015163,0.43700000009852397,0.05699999990147602,0.505999999901476,1565.4571428561806,7223.361332845258
4.133842222661745,1221.1578870313842,1220.663919636663,1.0000000000015163,0.4370000000984553,0.0569999999015447,0.5059999999015448,1565.4571428561806,7223.384031935346
4.133865110759494,1221.1592616738806,1220.6654429471112,1.0000000000015163,0.43700000009838663,0.056999999901613384,0.5059999999016134,1565.4571428561806,7223.406730994422
4.133887998857244,1221.1606361327601,1220.6669657988512,1.0000000000015163,0.4370000000983179,0.056999999901682065,0.5059999999016821,1565.4571428561806,7223.42943002248
4.133910886954993,1221.162010408364,1220.6684881927308,1.0000000000015163,0.43700000009824924,0.05699999990175075,0.5059999999017507,1565.4571428561806,7223.452129019516
4.133933775052743,1221.1633845010326,1220.6700101295974,1.0000000000015163,0.4370000000981806,0.05699999990181944,0.5059999999018194,1565.4571428561806,7223.474827985526
4.133956663150492,1221.1647584111058,1220.6715316102955,1.0000000000015163,0.43700000009811185,0.05699999990188813,0.5059999999018882,1565.4571428561806,7223.4975269205015
4.133979551248242,1221.166132138923,1220.6730526356687,1.0000000000015163,0.4370000000980432,0.05699999990195682,0.5059999999019569,1565.4571428561806,7223.520225824441
4.134002439345991,1221.1675056848226,1220.674573206559,1.0000000000015163,0.4370000000979745,0.05699999990202551,0.5059999999020255,1565.4571428561806,7223.542924697337
4.134048215541491,1221.1702522322203,1220.6776129882514,1.0000000000015163,0.43700000009783707,0.0569999999021629,0.5059999999021629,1565.4571428561806,7223.588322349984
4.134093991736991,1221.172998055995,1220.6806509620776,1.0000000000015163,0.4370000000976997,0.056999999902300306,0.5059999999023003,1565.4571428561806,7223.6337198784
4.13413976793249,1221.175743158833,1220.683687134717,1.0000000000015163,0.4370000000975623,0.05699999990243771,0.5059999999024377,1565.4571428561806,7223.679117282546
4.134231320323488,1221.1812312123948,1220.6897541030344,1.0000000000015163,0.43700000009728746,0.05699999990271255,0.5059999999027126,1565.4571428561806,7223.769911717869
4.134322872714487,1221.1867164141981,1220.695813946153,1.0000000000015163,0.43700000009701256,0.056999999902987424,0.5059999999029874,1565.4571428561806,7223.860705655641
4.134368648909987,1221.1894579523016,1220.6988412122037,1.0000000000015163,0.4370000000968751,0.056999999903124876,0.5059999999031248,1565.4571428561806,7223.906102437847
4.134414425105486,1221.1921987853793,1220.7018667166342,1.0000000000015163,0.4370000000967377,0.05699999990326233,0.5059999999032624,1565.4571428561806,7223.951499095548
4.1344602013009855,1221.194938916049,1220.7048904659546,1.0000000000015163,0.4370000000966002,0.056999999903399795,0.5059999999033998,1565.4571428561806,7223.996895628703
4.1345059774964845,1221.197678346919,1220.707912466651,1.0000000000015163,0.4370000000964627,0.05699999990353727,0.5059999999035373,1565.4571428561806,7224.042292037277
4.134551753691984,1221.2004170805876,1220.7109327251844,1.0000000000015163,0.4370000000963253,0.05699999990367475,0.5059999999036747,1565.4571428561806,7224.087688321228
4.134597529887483,1221.2031551196437,1220.7139512479935,1.0000000000015163,0.4370000000961878,0.056999999903812236,0.5059999999038123,1565.4571428561806,7224.13308448052
4.134643306082982,1221.2058924666667,1220.716968041492,1.0000000000015163,0.4370000000960503,0.05699999990394974,0.5059999999039497,1565.4571428561806,7224.178480515115
4.134689082278482,1221.2086291242265,1220.719983112071,1.0000000000015163,0.4370000000959128,0.05699999990408724,0.5059999999040873,1565.4571428561806,7224.223876424975
4.134734858473982,1221.2113650948834,1220.7229964660976,1.0000000000015163,0.4370000000957753,0.05699999990422475,0.5059999999042247,1565.4571428561806,7224.269272210063
4.134780634669481,1221.2141003811882,1220.7260081099148,1.0000000000015163,0.4370000000956377,0.056999999904362275,0.5059999999043623,1565.4571428561806,7224.314667870338
4.13482641086498,1221.2168349856831,1220.7290180498433,1.0000000000015163,0.4370000000955002,0.056999999904499804,0.5059999999044998,1565.4571428561806,7224.360063405764
4.134872187060479,1221.2195689108999,1220.7320262921799,1.0000000000015163,0.43700000009536266,0.05699999990463734,0.5059999999046374,1565.4571428561806,7224.405458816304
4.134917963255978,1221.2223021593613,1220.7350328431985,1.0000000000015163,0.4370000000952251,0.05699999990477488,0.5059999999047748,1565.4571428561806,7224.450854101922
4.134963739451477,1221.2250347335812,1220.7380377091492,1.0000000000015163,0.43700000009508755,0.05699999990491244,0.5059999999049124,1565.4571428561806,7224.496249262579
4.135009515646976,1221.2277666360637,1220.7410408962605,1.0000000000015163,0.43700000009495,0.05699999990505,0.50599999990505,1565.4571428561806,7224.541644298239
4.135055291842476,1221.2304978693041,1220.7440424107367,1.0000000000015163,0.43700000009481244,0.05699999990518757,0.5059999999051876,1565.4571428561806,7224.587039208866
4.135101068037976,1221.2332284357883,1220.7470422587594,1.0000000000015163,0.4370000000946749,0.05699999990532515,0.5059999999053252,1565.4571428561806,7224.632433994422
4.135146844233475,1221.2359583379928,1220.7500404464877,1.0000000000015163,0.43700000009453727,0.056999999905462735,0.5059999999054627,1565.4571428561806,7224.6778286548715
4.135192620428974,1221.2386875783855,1220.753036980058,1.0000000000015163,0.43700000009439965,0.056999999905600326,0.5059999999056003,1565.4571428561806,7224.723223190177
4.135238396624473,1221.2414161594243,1220.756031865584,1.0000000000015163,0.4370000000942621,0.05699999990573793,0.505999999905738,1565.4571428561806,7224.768617600303
4.135268914088139,1221.243234848353,1220.7580275433631,1.0000000000015163,0.43700000009417034,0.05699999990582967,0.5059999999058297,1565.4571428561806,7224.798880470825
4.135299431551806,1221.245053246048,1220.7600224931853,1.0000000000015163,0.4370000000940786,0.05699999990592141,0.5059999999059214,1565.4571428561806,7224.829143285685
4.135329949015471,1221.2468713532314,1220.762016716845,1.0000000000015163,0.4370000000939868,0.056999999906013156,0.5059999999060132,1565.4571428561806,7224.859406044871
4.1353604664791375,1221.2486891706228,1220.7640102161326,1.0000000000015163,0.4370000000938951,0.05699999990610491,0.5059999999061049,1565.4571428561806,7224.889668748376
4.135390983942804,1221.2505066989404,1220.7660029928345,1.0000000000015163,0.43700000009380335,0.05699999990619666,0.5059999999061967,1565.4571428561806,7224.919931396186
4.135421501406469,1221.2523239389009,1220.7679950487318,1.0000000000015163,0.4370000000937116,0.056999999906288415,0.5059999999062884,1565.4571428561806,7224.950193988292
4.135452018870136,1221.254140891219,1220.7699863856024,1.0000000000015163,0.43700000009361983,0.056999999906380175,0.5059999999063802,1565.4571428561806,7224.980456524684
4.135482536333802,1221.2559575566077,1220.7719770052186,1.0000000000015163,0.4370000000935281,0.05699999990647194,0.5059999999064719,1565.4571428561806,7225.0107190053495
4.135726676043132,1221.2704806352288,1220.7878763523088,1.0000000000015163,0.4370000000927938,0.05699999990720618,0.5059999999072062,1565.4571428561806,7225.25281684332
4.13574702101891,1221.271690076241,1220.7891992590742,1.0000000000015163,0.4370000000927326,0.05699999990726738,0.5059999999072674,1565.4571428561806,7225.272991501971
4.1357673659946865,1221.2728993927517,1220.7905218545775,1.0000000000015163,0.4370000000926714,0.056999999907328576,0.5059999999073286,1565.4571428561806,7225.29316613581
4.1357877109704635,1221.2741085849673,1220.7918441393308,1.0000000000015163,0.4370000000926102,0.05699999990738978,0.5059999999073898,1565.4571428561806,7225.313340744834
4.135808055946241,1221.2753176530932,1220.7931661138455,1.0000000000015163,0.437000000092549,0.05699999990745098,0.505999999907451,1565.4571428561806,7225.333515329042
4.135828400922019,1221.2765265973346,1220.794487778631,1.0000000000015163,0.4370000000924878,0.056999999907512186,0.5059999999075122,1565.4571428561806,7225.35368988843
4.135848745897796,1221.2777354178963,1220.7958091341975,1.0000000000015163,0.4370000000924266,0.05699999990757339,0.5059999999075734,1565.4571428561806,7225.373864422994
4.135869090873573,1221.2789441149826,1220.7971301810533,1.0000000000015163,0.4370000000923654,0.056999999907634595,0.5059999999076346,1565.4571428561806,7225.394038932732
4.135889435849351,1221.2801526887984,1220.798450919706,1.0000000000015163,0.4370000000923042,0.0569999999076958,0.5059999999076958,1565.4571428561806,7225.414213417641
4.135902999166536,1221.2809583362919,1220.7993312411677,1.0000000000015163,0.43700000009226336,0.05699999990773661,0.5059999999077366,1565.4571428561806,7225.427663060452
4.135916562483721,1221.2817639291495,1220.8002114260255,1.0000000000015163,0.43700000009222256,0.05699999990777742,0.5059999999077774,1565.4571428561806,7225.441112692225
4.135930125800906,1221.282569467431,1220.801091474429,1.0000000000015163,0.43700000009218176,0.056999999907818226,0.5059999999078182,1565.4571428561806,7225.45456231296
4.135936907459499,1221.2829722161248,1220.8015314475074,1.0000000000015163,0.4370000000921614,0.05699999990783863,0.5059999999078386,1565.4571428561806,7225.461287119188
4.135943689118091,1221.283374951197,1220.8019713865283,1.0000000000015163,0.43700000009214096,0.056999999907859034,0.505999999907859,1565.4571428561806,7225.468011922655
4.13594821022382,1221.2836434336814,1220.8022646602976,1.0000000000015163,0.43700000009212736,0.05699999990787264,0.5059999999078726,1565.4571428561806,7225.472495123434
4.135952731329548,1221.2839119101172,1220.8025579189439,1.0000000000015163,0.43700000009211376,0.05699999990788624,0.5059999999078862,1565.4571428561806,7225.476978322986
4.135957252435276,1221.284180380507,1220.802851162473,1.0000000000015163,0.43700000009210016,0.05699999990789984,0.5059999999078999,1565.4571428561806,7225.481461521311
4.135961773541005,1221.284448844853,1220.80314439089,1.0000000000015163,0.43700000009208656,0.05699999990791345,0.5059999999079134,1565.4571428561806,7225.48594471841
4.13596478761149,1221.284627817727,1220.8033398681093,1.0000000000015163,0.4370000000920775,0.05699999990792252,0.5059999999079225,1565.4571428561806,7225.488933515793
4.135967801681976,1221.284806787916,1220.8035353386158,1.0000000000015163,0.4370000000920684,0.05699999990793159,0.5059999999079315,1565.4571428561806,7225.491922312633
4.1359708157524615,1221.2849857554215,1220.8037308024118,1.0000000000015163,0.43700000009205936,0.056999999907940656,0.5059999999079406,1565.4571428561806,7225.494911108926
4.135973829822947,1221.2851647202438,1220.8039262594991,1.0000000000015163,0.43700000009205026,0.056999999907949725,0.5059999999079497,1565.4571428561806,7225.497899904674
4.135976843893433,1221.2853436823837,1220.8041217098787,1.0000000000015163,0.4370000000920412,0.056999999907958794,0.5059999999079587,1565.4571428561806,7225.500888699878
4.135979857963918,1221.285522641841,1220.8043171535528,1.0000000000015163,0.43700000009203216,0.05699999990796786,0.5059999999079678,1565.4571428561806,7225.503877494535
4.135984379069647,1221.2857910760006,1220.8046103064944,1.0000000000015163,0.43700000009201856,0.05699999990798146,0.5059999999079815,1565.4571428561806,7225.5083606855
4.135988900175375,1221.2860595041293,1220.8049034443573,1.0000000000015163,0.43700000009200496,0.05699999990799507,0.505999999907995,1565.4571428561806,7225.512843875236
4.135993421281103,1221.2863279262297,1220.8051965671473,1.0000000000015163,0.4370000000919913,0.05699999990800867,0.5059999999080087,1565.4571428561806,7225.517327063746
4.135997942386832,1221.2865963423037,1220.8054896748695,1.0000000000015163,0.4370000000919777,0.05699999990802228,0.5059999999080222,1565.4571428561806,7225.52181025103
4.136004724045424,1221.2869989551207,1220.8059293082135,1.0000000000015163,0.43700000009195733,0.05699999990804268,0.5059999999080427,1565.4571428561806,7225.5285350296535
4.136011505704017,1221.2874015543912,1220.8063689076864,1.0000000000015163,0.4370000000919369,0.056999999908063086,0.5059999999080631,1565.4571428561806,7225.535259805516
4.13601828736261,1221.2878041401225,1220.8068084733065,1.0000000000015163,0.43700000009191653,0.05699999990808349,0.5059999999080835,1565.4571428561806,7225.541984578618
4.136025069021202,1221.2882067123223,1220.807248005093,1.0000000000015163,0.4370000000918961,0.0569999999081039,0.5059999999081038,1565.4571428561806,7225.548709348958
4.136031850679794,1221.288609270998,1220.807687503064,1.0000000000015163,0.4370000000918757,0.05699999990812431,0.5059999999081243,1565.4571428561806,7225.555434116537
4.136038632338387,1221.2890118161574,1220.8081269672384,1.0000000000015163,0.4370000000918553,0.056999999908144715,0.5059999999081447,1565.4571428561806,7225.562158881356
4.13604541399698,1221.2894143478072,1220.8085663976346,1.0000000000015163,0.4370000000918349,0.05699999990816512,0.5059999999081651,1565.4571428561806,7225.568883643412
4.136052195655572,1221.2898168659556,1220.809005794271,1.0000000000015163,0.4370000000918145,0.05699999990818553,0.5059999999081856,1565.4571428561806,7225.575608402706
4.136062368143461,1221.2904206178785,1220.8096648259664,1.0000000000015163,0.43700000009178386,0.05699999990821614,0.5059999999082161,1565.4571428561806,7225.585695536471
4.13607254063135,1221.2910243394645,1220.8103237818066,1.0000000000015163,0.43700000009175327,0.05699999990824675,0.5059999999082467,1565.4571428561806,7225.59578266402
4.136082713119238,1221.2916280307386,1220.810982661854,1.0000000000015163,0.43700000009172263,0.05699999990827736,0.5059999999082774,1565.4571428561806,7225.605869785353
4.136092885607127,1221.2922316917259,1220.811641466171,1.0000000000015163,0.43700000009169204,0.05699999990830797,0.505999999908308,1565.4571428561806,7225.615956900473
4.136103058095015,1221.292835322451,1220.8123001948197,1.0000000000015163,0.4370000000916614,0.05699999990833859,0.5059999999083385,1565.4571428561806,7225.6260440093765
4.136113230582904,1221.2934389229397,1220.8129588478628,1.0000000000015163,0.4370000000916308,0.0569999999083692,0.5059999999083692,1565.4571428561806,7225.6361311120645
4.136123403070792,1221.294042493217,1220.8136174253618,1.0000000000015163,0.43700000009160017,0.056999999908399816,0.5059999999083998,1565.4571428561806,7225.646218208536
4.136133575558682,1221.2946460333071,1220.8142759273794,1.0000000000015163,0.4370000000915696,0.05699999990843043,0.5059999999084305,1565.4571428561806,7225.656305298792
4.136143748046571,1221.2952495432357,1220.8149343539776,1.0000000000015163,0.43700000009153894,0.05699999990846104,0.505999999908461,1565.4571428561806,7225.666392382831
4.1361539205344595,1221.2958530230273,1220.8155927052183,1.0000000000015163,0.43700000009150836,0.05699999990849166,0.5059999999084916,1565.4571428561806,7225.676479460652
4.136164093022348,1221.2964564727072,1220.8162509811634,1.0000000000015163,0.4370000000914777,0.056999999908522274,0.5059999999085223,1565.4571428561806,7225.686566532256
4.1361742655102365,1221.2970598923,1220.8169091818752,1.0000000000015163,0.4370000000914471,0.05699999990855289,0.5059999999085529,1565.4571428561806,7225.696653597642
4.136184437998125,1221.2976632818309,1220.8175673074154,1.0000000000015163,0.4370000000914165,0.0569999999085835,0.5059999999085835,1565.4571428561806,7225.7067406568085
4.1361946104860134,1221.2982666413243,1220.818225357846,1.0000000000015163,0.4370000000913859,0.05699999990861412,0.5059999999086141,1565.4571428561806,7225.716827709757
4.136204782973902,1221.2988699708055,1220.818883333228,1.0000000000015163,0.43700000009135526,0.05699999990864474,0.5059999999086447,1565.4571428561806,7225.726914756486
4.136214955461791,1221.2994732702991,1220.8195412336247,1.0000000000015163,0.43700000009132467,0.05699999990867535,0.5059999999086754,1565.4571428561806,7225.737001796997
4.136245472925458,1221.3012829891034,1220.821514485513,1.0000000000015163,0.4370000000912328,0.0569999999087672,0.5059999999087672,1565.4571428561806,7225.767262881207
4.136275990389123,1221.3030924389113,1220.8234870647436,1.0000000000015163,0.4370000000911409,0.05699999990885906,0.505999999908859,1565.4571428561806,7225.797523909428
4.136306507852789,1221.3049016203906,1220.8254589729752,1.0000000000015163,0.43700000009104906,0.056999999908950924,0.505999999908951,1565.4571428561806,7225.8277848816515
4.136337025316456,1221.306710534207,1220.827430211863,1.0000000000015163,0.43700000009095724,0.05699999990904279,0.5059999999090428,1565.4571428561806,7225.858045797868
4.136367542780122,1221.308519181024,1220.8294007830573,1.0000000000015163,0.43700000009086537,0.05699999990913465,0.5059999999091347,1565.4571428561806,7225.888306658067
4.136398060243788,1221.3103275615035,1220.831370688205,1.0000000000015163,0.4370000000907735,0.05699999990922652,0.5059999999092265,1565.4571428561806,7225.91856746224
4.136428577707455,1221.3121356763068,1220.8333399289488,1.0000000000015163,0.4370000000906816,0.0569999999093184,0.5059999999093184,1565.4571428561806,7225.948828210377
4.136459095171121,1221.3139435260923,1220.8353085069273,1.0000000000015163,0.4370000000905897,0.05699999990941028,0.5059999999094102,1565.4571428561806,7225.979088902467
4.136489612634787,1221.3157511115173,1220.8372764237752,1.0000000000015163,0.43700000009049783,0.056999999909502164,0.5059999999095022,1565.4571428561806,7226.009349538501
4.136520130098454,1221.317558433238,1220.839243681123,1.0000000000015163,0.43700000009040596,0.05699999990959405,0.5059999999095941,1565.4571428561806,7226.039610118471
4.136550647562119,1221.319365491908,1220.8412102805974,1.0000000000015163,0.4370000000903141,0.05699999990968593,0.5059999999096859,1565.4571428561806,7226.069870642364
4.1365811650257855,1221.32117228818,1220.8431762238206,1.0000000000015163,0.43700000009022216,0.05699999990977783,0.5059999999097778,1565.4571428561806,7226.100131110174
4.136611682489452,1221.3229788227047,1220.8451415124116,1.0000000000015163,0.4370000000901303,0.056999999909869724,0.5059999999098698,1565.4571428561806,7226.13039152189
4.136642199953117,1221.324785096132,1220.8471061479847,1.0000000000015163,0.43700000009003837,0.05699999990996162,0.5059999999099616,1565.4571428561806,7226.160651877502
4.136672717416784,1221.3265911091091,1220.849070132151,1.0000000000015163,0.4370000000899465,0.05699999991005353,0.5059999999100535,1565.4571428561806,7226.190912177002
4.13670323488045,1221.3283968622823,1220.8510334665168,1.0000000000015163,0.43700000008985457,0.056999999910145434,0.5059999999101454,1565.4571428561806,7226.22117242038
4.136749011075949,1221.3311050063187,1220.8539772531947,1.0000000000015163,0.4370000000897167,0.0569999999102833,0.5059999999102833,1565.4571428561806,7226.266562680197
4.136794787271448,1221.3338125694145,1220.8569195868195,1.0000000000015163,0.43700000008957884,0.05699999991042118,0.5059999999104212,1565.4571428561806,7226.311952813688
4.136840563466947,1221.3365195537303,1220.8598604727642,1.0000000000015163,0.43700000008944095,0.05699999991055906,0.5059999999105591,1565.4571428561806,7226.357342820819
4.136886339662447,1221.3392259614193,1220.8627999163816,1.0000000000015163,0.43700000008930306,0.05699999991069695,0.505999999910697,1565.4571428561806,7226.402732701561
4.136932115857947,1221.341931794625,1220.8657379230053,1.0000000000015163,0.4370000000891652,0.05699999991083485,0.5059999999108349,1565.4571428561806,7226.448122455882
4.136977892053446,1221.3446370554848,1220.8686744979482,1.0000000000015163,0.43700000008902723,0.05699999991097276,0.5059999999109728,1565.4571428561806,7226.493512083749
4.137023668248945,1221.347341746128,1220.871609646505,1.0000000000015163,0.43700000008888934,0.056999999911110676,0.5059999999111107,1565.4571428561806,7226.538901585133
4.137069444444444,1221.350045868675,1220.8745433739498,1.0000000000015163,0.4370000000887514,0.0569999999112486,0.5059999999112486,1565.4571428561806,7226.584290960004
4.137115220639943,1221.3527494252396,1220.877475685538,1.0000000000015163,0.43700000008861345,0.056999999911386524,0.5059999999113866,1565.4571428561806,7226.62968020833
4.137160996835442,1221.355452417927,1220.8804065865054,1.0000000000015163,0.43700000008847556,0.05699999991152447,0.5059999999115244,1565.4571428561806,7226.67506933008
4.137206773030941,1221.3581548488348,1220.8833360820677,1.0000000000015163,0.4370000000883376,0.056999999911662415,0.5059999999116624,1565.4571428561806,7226.720458325225
4.137252549226441,1221.3608567200533,1220.886264177423,1.0000000000015163,0.4370000000881996,0.05699999991180037,0.5059999999118003,1565.4571428561806,7226.765847193734
4.137298325421941,1221.363558033665,1220.8891908777491,1.0000000000015163,0.43700000008806167,0.05699999991193833,0.5059999999119383,1565.4571428561806,7226.811235935577
4.13734410161744,1221.3662587917438,1220.892116188205,1.0000000000015163,0.4370000000879237,0.056999999912076306,0.5059999999120763,1565.4571428561806,7226.856624550723
4.137389877812939,1221.3689589963574,1220.8950401139302,1.0000000000015163,0.4370000000877857,0.056999999912214286,0.5059999999122143,1565.4571428561806,7226.902013039143
4.1374356540084385,1221.3716586495648,1220.8979626600467,1.0000000000015163,0.4370000000876477,0.05699999991235227,0.5059999999123522,1565.4571428561806,7226.9474014008065
4.1374814302039375,1221.3743577534178,1220.9008838316558,1.0000000000015163,0.4370000000875097,0.056999999912490266,0.5059999999124902,1565.4571428561806,7226.992789635684
4.137527206399437,1221.3770563099608,1220.9038036338413,1.0000000000015163,0.4370000000873717,0.05699999991262827,0.5059999999126282,1565.4571428561806,7227.038177743747
4.137572982594936,1221.3797543212304,1220.9067220716681,1.0000000000015163,0.4370000000872337,0.05699999991276628,0.5059999999127662,1565.4571428561806,7227.083565724965
4.137618758790436,1221.3824517892558,1220.9096391501819,1.0000000000015163,0.4370000000870957,0.056999999912904296,0.5059999999129043,1565.4571428561806,7227.128953579309
4.137664534985936,1221.3851487160584,1220.9125548744098,1.0000000000015163,0.43700000008695766,0.056999999913042325,0.5059999999130423,1565.4571428561806,7227.174341306752
4.137710311181435,1221.3878451036533,1220.9154692493614,1.0000000000015163,0.43700000008681966,0.05699999991318036,0.5059999999131803,1565.4571428561806,7227.219728907259
4.137756087376934,1221.3905409540464,1220.9183822800267,1.0000000000015163,0.4370000000866816,0.0569999999133184,0.5059999999133185,1565.4571428561806,7227.265116380807
4.137801863572433,1221.3932362692378,1220.9212939713775,1.0000000000015163,0.43700000008654355,0.05699999991345646,0.5059999999134565,1565.4571428561806,7227.3105037273635
4.137847639767932,1221.3959310512193,1220.924204328368,1.0000000000015163,0.4370000000864055,0.056999999913594515,0.5059999999135946,1565.4571428561806,7227.355890946901
4.137893415963432,1221.3986253019757,1220.9271133559337,1.0000000000015163,0.43700000008626744,0.056999999913732585,0.5059999999137326,1565.4571428561806,7227.401278039392
4.137939192158932,1221.4013190234846,1220.9300210589918,1.0000000000015163,0.4370000000861293,0.05699999991387066,0.5059999999138707,1565.4571428561806,7227.446665004806
4.137984968354431,1221.4040122177157,1220.9329274424413,1.0000000000015163,0.43700000008599127,0.05699999991400874,0.5059999999140088,1565.4571428561806,7227.492051843116
4.13803074454993,1221.4067048866325,1220.9358325111634,1.0000000000015163,0.43700000008585316,0.05699999991414683,0.5059999999141468,1565.4571428561806,7227.537438554293
4.138076520745429,1221.40939703219,1220.9387362700213,1.0000000000015163,0.43700000008571505,0.056999999914284935,0.5059999999142849,1565.4571428561806,7227.582825138309
4.138122296940928,1221.4120886563376,1220.94163872386,1.0000000000015163,0.43700000008557693,0.05699999991442304,0.505999999914423,1565.4571428561806,7227.628211595135
4.138168073136428,1221.4147797610156,1220.9445398775076,1.0000000000015163,0.4370000000854388,0.05699999991456116,0.5059999999145611,1565.4571428561806,7227.673597924746
4.138259625527427,1221.4201604196937,1220.9503383034487,1.0000000000015163,0.4370000000851626,0.05699999991483741,0.5059999999148375,1565.4571428561806,7227.764370202204
4.138351177918425,1221.4255390236121,1220.9561315861085,1.0000000000015163,0.4370000000848863,0.056999999915113696,0.5059999999151137,1565.4571428561806,7227.855141970462
4.138442730309424,1221.4309155880458,1220.9619197634706,1.0000000000015163,0.43700000008461,0.056999999915390016,0.50599999991539,1565.4571428561806,7227.945913229301
4.138534282700423,1221.4362901281563,1220.9677028732385,1.0000000000015163,0.43700000008433365,0.056999999915666365,0.5059999999156664,1565.4571428561806,7228.036683978504
4.138625835091421,1221.4416626589948,1220.973480952839,1.0000000000015163,0.43700000008405726,0.05699999991594275,0.5059999999159428,1565.4571428561806,7228.127454217853
4.13871738748242,1221.4470331955013,1220.9792540394233,1.0000000000015163,0.4370000000837808,0.05699999991621916,0.5059999999162191,1565.4571428561806,7228.218223947136
4.138808939873419,1221.452401752506,1220.9850221698691,1.0000000000015163,0.43700000008350437,0.056999999916495604,0.5059999999164956,1565.4571428561806,7228.30899316614
4.138900492264417,1221.4577683447296,1220.9907853807838,1.0000000000015163,0.4370000000832279,0.056999999916772084,0.5059999999167721,1565.4571428561806,7228.399761874653
4.138992044655415,1221.4631329867852,1220.9965437085045,1.0000000000015163,0.4370000000829514,0.05699999991704859,0.5059999999170486,1565.4571428561806,7228.490530072468
4.139083597046414,1221.4684956931787,1221.0022971891015,1.0000000000015163,0.43700000008267487,0.056999999917325135,0.5059999999173251,1565.4571428561806,7228.581297759379
4.139175149437413,1221.473856478308,1221.0080458583805,1.0000000000015163,0.4370000000823983,0.05699999991760171,0.5059999999176017,1565.4571428561806,7228.672064935178
4.1392667018284115,1221.4792153564663,1221.0137897518825,1.0000000000015163,0.4370000000821217,0.05699999991787832,0.5059999999178784,1565.4571428561806,7228.762831599663
4.13935825421941,1221.4845723418414,1221.0195289048881,1.0000000000015163,0.43700000008184503,0.05699999991815495,0.5059999999181549,1565.4571428561806,7228.853597752631
4.139449806610409,1221.4899274485163,1221.0252633524185,1.0000000000015163,0.43700000008156836,0.056999999918431625,0.5059999999184316,1565.4571428561806,7228.944363393883
