z,T,t,fs,x,y,w,rhob,p
0.0,556.2446968514281,298.0,0.0,0.22647859010815916,0.26752140989184087,0.35471996110774584,2200.0,2040.0
0.0025907960199004977,579.7726278507141,352.1320471510772,6.50491047783598e-07,0.22647882545676268,0.2675211745432373,0.35471996110774584,2199.999587235552,2045.4028592071934
0.0051815920398009955,600.3938728052129,399.1402149599778,2.8897539725788506e-06,0.22647963562533308,0.2675203643746669,0.35471996110774584,2199.998166327258,2051.13679599416
0.007772388059701494,618.5339397693482,440.1717615131613,8.06393262834847e-06,0.226481507650667,0.267518492349333,0.35471996110774584,2199.9948830891503,2057.162495322748
0.010363184079601991,634.5411595744573,476.13940188268344,1.7482754237463094e-05,0.226484915393971,0.26751508460602896,0.35471996110774584,2199.9889064431754,2063.4448654399416
0.015544776119402987,661.2637102601727,535.7014751012184,5.29627648630063e-05,0.22649775211321815,0.26750224788678184,0.35471996110774584,2199.966392855862,2076.6579186789572
0.020726368159203982,682.3587735138784,582.3050179037639,0.00011407817402591102,0.22651986375679625,0.26748013624320377,0.35471996110774584,2199.927612509516,2090.5644349824897
0.02590796019900498,699.1220702605483,619.0786141973446,0.00020166190480429055,0.22655155167748167,0.26744844832251835,0.35471996110774584,2199.8720368787485,2104.9966873465705
0.031089552238805974,712.5121638475025,648.2820140173554,0.0003143058380514177,0.22659230641572708,0.2674076935842729,0.35471996110774584,2199.8005594755064,2119.821661215396
0.041452736318407964,731.8951490276087,690.2602838950157,0.0006048851166374132,0.22669743841970577,0.26730256158029425,0.35471996110774584,2199.6161744698456,2150.2498064385723
0.05181592039800996,744.5185990418186,717.3632155208853,0.0009651046207920422,0.22682776635818874,0.26717223364181125,0.35471996110774584,2199.387599756481,2181.2408099191166
0.06217910447761195,752.8235310878123,735.035456079656,0.001377183934654032,0.22697685725095745,0.2670231427490426,0.35471996110774584,2199.1261177712936,2212.413781525392
0.07254228855721394,758.339729182723,746.6469402590452,0.0018278577491895947,0.2271399116899849,0.26686008831001506,0.35471996110774584,2198.8401459213787,2243.5316676137045
0.08290547263681593,762.0432127544783,754.3306101870219,0.0023077396160685808,0.2273135336446663,0.2666864663553337,0.35471996110774584,2198.535640310478,2274.4489155188726
0.09326865671641792,764.5637651451245,759.4556718420306,0.002810343221894621,0.22749537635741765,0.2665046236425824,0.3547199611077459,2198.216716782427,2305.0782292412196
0.1036318407960199,766.3106571721429,762.9089440682512,0.0033312392081966307,0.22768383727992686,0.2663161627200732,0.3547199611077459,2197.8861859550043,2335.36936257318
0.11399502487562191,767.5510348741641,765.2680323781741,0.0038674220942933888,0.2278778290249292,0.26612217097507074,0.3547199611077459,2197.5459549345096,2365.2955546774515
0.1243582089552239,768.4597409010153,766.9104411426072,0.004416859670119421,0.22807661633587878,0.2659233836641212,0.35471996110774595,2197.197313245323,2394.8448421225344
0.1347213930348259,769.1513827224736,768.0833982146942,0.004978180260988569,0.22827970293888686,0.2657202970611131,0.35471996110774595,2196.84113127382,2424.0144931408186
0.14508457711442788,769.7011438658043,768.9489947606735,0.005550458589847935,0.22848675406737518,0.2655132459326248,0.354719961107746,2196.477996147945,2452.8074453403437
0.15544776119402987,770.1583605355773,769.6135586757781,0.006133070308648714,0.22869754383131516,0.26530245616868486,0.354719961107746,2196.108304043292,2481.2300305913104
0.16581094527363185,770.5554073391337,770.1468473936638,0.006725593672115973,0.22891191964265525,0.26508808035734477,0.35471996110774606,2195.7323225753134,2509.290527286876
0.17617412935323384,770.91352406642,770.5946200686958,0.00732774329976975,0.2291297782503244,0.26487022174967556,0.35471996110774606,2195.3502328301547,2536.998244313549
0.18653731343283586,771.2466405862358,770.9868847608996,0.007939325659908143,0.2293510496342725,0.2646489503657275,0.3547199611077461,2194.9621576119744,2564.362946417671
0.20208208955223883,771.7185166972156,771.5122969395044,0.008874109775418682,0.22968925588156333,0.26431074411843664,0.3547199611077461,2194.368997028507,2604.7883989193533
0.21762686567164183,772.172644926077,771.995750272766,0.009829550184079891,0.23003493560564262,0.2639650643943574,0.3547199611077462,2193.762729141765,2644.4969062865216
0.2487164179104478,773.0625498654942,772.9119133603795,0.01180184137692934,0.23074851341663707,0.26325148658336295,0.3547199611077463,2192.5112258531362,2721.886493593433
0.2798059701492538,773.9518574875966,773.8117717182478,0.013855628974559336,0.23149157674495174,0.2625084232550483,0.3547199611077464,2191.2080096029717,2796.76075224416
0.31089552238805973,774.8504627360159,774.7165331042848,0.015990824986559706,0.2322640937555287,0.2617359062444713,0.3547199611077465,2189.853136224957,2869.32080021997
0.3419850746268657,775.761213719217,775.6322026597247,0.018207560437934596,0.2330661118534043,0.2609338881465957,0.3547199611077466,2188.446522578112,2939.742862018762
0.3730746268656717,776.6850014999362,776.5605510731893,0.02050610232618488,0.2338977276386612,0.2601022723613388,0.3547199611077468,2186.987999241079,3008.1820049106555
0.3938009950248757,777.3082864716491,777.1868088174327,0.02208409157278925,0.23446864643424628,0.25953135356575374,0.35471996110774684,2185.986697435998,3052.7748907505897
0.4145273631840796,777.9375923721793,777.8190644327699,0.02369873594371488,0.23505282710691616,0.25894717289308383,0.35471996110774695,2184.962136383601,3096.58461005468
0.43525373134328366,778.5729766507595,778.4573861953065,0.025350185228479778,0.2356503238507354,0.25834967614926463,0.35471996110774706,2183.91422103602,3139.6453269787316
0.45598009950248763,779.214494425041,779.101834624333,0.02703860493190702,0.23626119654558875,0.25773880345441125,0.3547199611077472,2182.8428463733508,3181.988802349641
0.4767064676616916,779.8622011047561,779.7524682073675,0.028764175465282864,0.23688551046454098,0.257114489535459,0.3547199611077473,2181.747897916901,3223.644626545376
0.4974328358208956,780.5161534715754,780.4093457860489,0.030527091440864462,0.23752333601858872,0.25647666398141133,0.35471996110774745,2180.629252176853,3264.640424182277
0.5181592039800996,781.1764101138132,781.0725275416154,0.032327561045711835,0.23817474853011183,0.25582525146988816,0.35471996110774756,2179.4867770495935,3305.0020346178376
0.5388855721393035,781.8430315939827,781.7420753960232,0.034165805480268166,0.23883982802975115,0.2551601719702488,0.35471996110774767,2178.320332173964,3344.753671652357
0.5596119402985076,782.5160805076735,782.4180531711942,0.03604205845175452,0.2395186590731179,0.25448134092688207,0.35471996110774784,2177.1297692527137,3383.918065280429
0.5803383084577115,783.1956214999424,783.1005266496613,0.037956565714917644,0.24021133057463545,0.2537886694253646,0.354719961107748,2175.9149323439256,3422.5165878979487
0.6010646766169155,783.8817212667956,783.7895635963429,0.03990958465413582,0.24091793565634476,0.25308206434365527,0.35471996110774817,2174.67565812618,3460.5693670004425
0.6217910447761195,784.5744485533238,784.4852337662709,0.04190138390185799,0.24163857150985504,0.2523614284901449,0.35471996110774834,2173.411776140675,3498.095386101496
0.6425174129353235,785.2738741535771,785.187608908622,0.04393224298906057,0.24237333926987856,0.2516266607301214,0.3547199611077485,2172.1231090130273,3535.112575344798
0.6632437810945274,785.9800709148986,785.8967627714998,0.04600245202395997,0.2431223438979883,0.2508776561020117,0.35471996110774867,2170.8094726571394,3571.637893070386
0.6839701492537315,786.6931137489993,786.612771109674,0.048112311395673346,0.2438856940754021,0.25011430592459793,0.3547199611077489,2169.4706764632424,3607.6873994174616
0.7046965174129355,787.4130796527717,787.3357116968775,0.05026213149990237,0.24466350210373444,0.24933649789626555,0.35471996110774906,2168.106523471962,3643.2763228964623
0.7254228855721395,788.1400477436576,788.06566434455,0.05245223248404803,0.24545588381277886,0.24854411618722116,0.3547199611077493,2166.716810536051,3678.4191207369013
0.7461492537313434,788.8740993177516,788.8027109299326,0.05468294400945926,0.246262958474489,0.247737041525511,0.3547199611077495,2165.3013284712547,3713.129533710854
0.7668756218905474,789.6153179447105,789.5469354383483,0.05695460502879528,0.24708484872242806,0.24691515127757194,0.3547199611077498,2163.8598621975852,3747.4206360417006
0.7876019900497514,790.3637896238347,790.2984240278671,0.05926756357675493,0.24792168047605428,0.2460783195239457,0.35471996110775,2162.39219087211,3781.3048809313145
0.8083283582089553,791.1196030437259,791.0572651303553,0.06162217657272734,0.24877358286931975,0.24522641713068025,0.3547199611077503,2160.89808801418,3814.794142174488
0.8290547263681592,791.8828500197932,791.823549612927,0.06401880963428852,0.24964068818319318,0.2443593118168068,0.3547199611077505,2159.3773216237737,3847.8997522758373
0.8497810945273633,792.6536262405673,792.5973710412184,0.0664578369009818,0.2505231317819034,0.2434768682180966,0.35471996110775084,2157.8296542933167,3880.6325374412663
0.8705074626865673,793.4320325553942,793.3788261163907,0.06893964086860434,0.25142105205298393,0.24257894794701607,0.3547199611077511,2156.254843312833,3913.0028497840863
0.8912338308457713,794.218177219486,794.1680154115427,0.07146461223550427,0.2523345903516632,0.24166540964833677,0.35471996110775145,2154.6526407674764,3945.0205970674688
0.9119601990049753,795.0121798456703,794.9650446289385,0.07403314976457792,0.2532638909509348,0.24073610904906514,0.3547199611077517,2153.0227936251,3976.6952703056045
0.9326865671641792,795.8141784217488,795.7700267714819,0.07664566016849163,0.2542091010000307,0.23979089899996928,0.3547199611077521,2151.365043809085,4008.03596957648
0.9534129353233832,796.624341872473,796.5830859348216,0.0793025580325038,0.25517037049649804,0.23882962950350198,0.35471996110775245,2149.6791282473177,4039.0514284801466
0.9741393034825871,797.4428927085564,797.4043640049762,0.0820042658017141,0.25614785228158576,0.23785214771841418,0.35471996110775283,2147.964778880278,4069.750037845799
0.9948656716417912,798.2701480999543,798.2340326402618,0.08475121388257817,0.25714170207697334,0.2368582979230267,0.3547199611077532,2146.2217225966237,4100.139869619058
1.0155920398009952,799.1065946232195,799.0723150541396,0.08754384095198378,0.258152078596594,0.235847921403406,0.3547199611077536,2144.449681037069,4130.228702473978
1.0363184079601993,799.9530242139131,799.9195264923445,0.09038259465176485,0.259179143797912,0.23482085620208798,0.35471996110775406,2142.6483701536845,4160.024051812664
1.057044776119403,800.8107794566052,800.7761517966466,0.09326793301815295,0.26022306339909956,0.2337769366009005,0.3547199611077545,2140.817499302853,4189.533208792601
1.077771144278607,801.6821864606683,801.6430002470499,0.09620032736258124,0.26128400792131584,0.23271599207868418,0.354719961107755,2138.9567694172697,4218.763296318738
1.0984975124378111,802.5712819203972,802.5215288132068,0.09918026814343776,0.2623621548131163,0.2316378451868837,0.3547199611077555,2137.065869280068,4247.72135476305
1.1192238805970152,803.4849112647343,803.4145339352635,0.10220827722936597,0.26345769288733223,0.23054230711266777,0.354719961107756,2135.144467743229,4276.414475010508
1.1399502487562192,804.4340248702717,804.3275689519442,0.10528493374424518,0.26457083167182216,0.22942916832817786,0.35471996110775655,2133.1921973278304,4304.849993994687
1.160676616915423,805.4342844734057,805.2713329598668,0.10841092577659665,0.26570182011800997,0.22829817988199003,0.3547199611077571,2131.2086214122164,4333.035739359748
1.181402985074627,806.5041419951104,806.2638890766184,0.11158713743436766,0.2668509780974319,0.2271490219025681,0.3547199611077577,2129.1931789920036,4360.980233403207
1.202129353233831,807.6591727236315,807.3287677277976,0.11481474819292088,0.2680187323459829,0.22598126765401713,0.35471996110775833,2127.145121639526,4388.692675571802
1.222855721393035,808.9053443538143,808.4860203998419,0.11809526519203538,0.26920562814901855,0.22479437185098142,0.354719961107759,2125.0634930100027,4416.182564481237
1.243582089552239,810.236865728327,809.7421961904815,0.12143041723335767,0.27041229098947933,0.22358770901052066,0.3547199611077597,2122.947196104696,4443.459077940409
1.264308457711443,811.6402771590258,811.0889312051572,0.1248219535922719,0.27163935375773346,0.22236064624226656,0.3547199611077605,2120.795120933407,4470.530546120884
1.285034825870647,813.1005883293202,812.5098514274658,0.12827146561988137,0.2728873922069156,0.22111260779308442,0.35471996110776133,2118.606257715659,4497.404247091062
1.305761194029851,814.6053104447329,813.9881972338799,0.13178028817971355,0.2741568892925839,0.21984311070741608,0.3547199611077622,2116.3797594233356,4524.08649104145
1.3264875621890548,816.1456536598857,815.5107897531655,0.13534944052215106,0.27544821378100354,0.21855178621899646,0.35471996110776316,2114.114979298387,4550.58283356042
1.3472139303482589,817.7160530009011,817.0687037379508,0.13897951219606666,0.27676157897181075,0.21723842102818922,0.35471996110776416,2111.8115432467876,4576.8982908533235
1.367940298507463,819.3131457506461,818.65638273147,0.14267035436096814,0.2780969310142999,0.21590306898570014,0.3547199611077652,2109.469545714207,4603.037502183698
1.3886666666666667,820.9347154841505,820.2703642061133,0.1464203231072345,0.27945367513958824,0.21454632486041175,0.3547199611077664,2107.090029831755,4629.004830361825
1.4093930348258707,822.5786301498716,821.9079990559572,0.15022454374563626,0.28083004767805037,0.21316995232194963,0.3547199611077676,2104.6760887986616,4654.804404509128
1.4301194029850748,824.2414722828264,823.5660218525965,0.1540710989875964,0.2822217369374135,0.21177826306258657,0.35471996110776893,2102.2352846452704,4680.440101754429
1.450845771144279,825.9162832589174,825.2384758578422,0.1579332110995635,0.28361905469488347,0.21038094530511653,0.3547199611077704,2099.784608991137,4705.915442658333
1.4715721393034829,827.5888197892391,826.9133718310009,0.16175562854377312,0.2850020108640498,0.2089979891359502,0.35471996110777193,2097.3591213048953,4731.233345137897
1.4922985074626869,829.2332043629066,828.5684628218117,0.16543983370957613,0.2863349616306489,0.20766503836935107,0.3547199611077736,2095.0213352326864,4756.395681287173
1.513024875621891,830.8125819834702,830.1703020369935,0.16885137751174964,0.2875692631208597,0.20643073687914035,0.3547199611077754,2092.856564481187,4781.4027314640625
1.5337512437810947,832.2922164291282,831.6836185334538,0.17187539822836934,0.2886633581972801,0.2053366418027199,0.35471996110777726,2090.9376937356046,4806.252981981691
1.5544776119402988,833.6571704277222,833.0876358993997,0.17448019945120907,0.28960577905349283,0.2043942209465072,0.35471996110777926,2089.2848357253743,4830.943738384587
1.5752039800995028,834.915237489924,834.3830578566486,0.17671474062183076,0.29041423928638654,0.20358576071361348,0.3547199611077814,2087.8669235865646,4855.472248808845
1.5959303482587066,836.0860910134224,835.5853123167941,0.17865957483703424,0.29111788312308734,0.20288211687691265,0.35471996110778364,2086.63284292698,4879.836541732367
1.6166567164179106,837.1909172615652,836.714553739632,0.18039060181945338,0.29174417119320645,0.2022558288067936,0.35471996110778603,2085.5344321197645,4904.0356889752375
1.6373830845771147,838.2477458536656,837.7895454196962,0.18196753948621608,0.2923147095256789,0.2016852904743211,0.35471996110778853,2084.5337975871607,4928.069709487332
1.6581094527363185,839.2705431875204,838.8255233577728,0.1834345211739208,0.29284546562562574,0.20115453437437425,0.35471996110779114,2083.6029348356683,4951.93936021007
1.6788358208955225,840.2697475561345,839.834136630834,0.18482371403821665,0.293348077616564,0.200651922383436,0.35471996110779386,2082.721432426435,4975.645934175817
1.6995621890547266,841.2531001661206,840.8240947349394,0.1861587244632208,0.29383108632246785,0.20016891367753215,0.35471996110779674,2081.8743110970377,4999.191100769786
1.7202885572139308,842.2263787075254,841.8018957760675,0.18745713807448497,0.29430085424813957,0.1996991457518604,0.35471996110779974,2081.0504120143933,5022.576788624792
1.7410149253731346,843.1939524754349,842.7724302356269,0.18873228563134228,0.2947622044816193,0.19923779551838064,0.3547199611078029,2080.2412762403865,5045.805102215529
1.7617412935323387,844.159178479591,843.7394301085379,0.18999444876248514,0.2952188569310638,0.19878114306893618,0.3547199611078062,2079.4403796409706,5068.878262849306
1.7824676616915427,845.1246784250197,844.7057886458673,0.19125168610786933,0.2956737272240843,0.19832627277591572,0.3547199611078096,2078.642608663724,5091.798566739953
1.8031940298507465,846.092532338171,845.6737849134024,0.19251040757621707,0.29612913447494293,0.19787086552505706,0.35471996110781323,2077.8438959468513,5114.568354949299
1.8239203980099505,847.0644340713075,846.6452532503472,0.19377586492606325,0.29658697877748647,0.19741302122251356,0.354719961107817,2077.040909024487,5137.18999172292
1.8342835820895527,847.5525099601019,847.1328690563189,0.1944132159640683,0.29681757330641795,0.19718242669358205,0.35471996110781895,2076.636482475829,5148.445995940617
1.8446467661691546,848.0435966658777,847.6228470920231,0.19506034613159146,0.29705170593857694,0.19694829406142306,0.35471996110782095,2076.2258506503854,5159.6658664272445
1.847237562189055,848.1672952813856,847.746031482385,0.19522556520955606,0.2971114824403506,0.1968885175596494,0.35471996110782145,2076.121012064599,5162.465229179094
1.8498283582089554,848.2911185057062,847.869398420123,0.195390902879952,0.29717130184903773,0.19682869815096227,0.35471996110782195,2076.0160982268326,5165.2623619934675
1.8511237562189056,848.3524200201457,847.9307994260622,0.19547055520676765,0.2972001201762783,0.1967998798237217,0.3547199611078222,2075.965555411797,5166.660092709652
1.852419154228856,848.4121670019871,847.9913797810631,0.19554290229018004,0.29722629545587187,0.19677370454412813,0.35471996110782245,2075.919648086782,5168.057264026498
1.8537145522388063,848.4693958660206,848.0505603351719,0.19560363692891808,0.29724826933615833,0.19675173066384166,0.3547199611078227,2075.88110935559,5169.453870900411
1.8550099502487565,848.524371935712,848.1083728429751,0.19565430751417717,0.29726660202731553,0.19673339797268452,0.35471996110782295,2075.848956697647,5170.849907240496
1.8563053482587066,848.5780867671263,848.1652588434981,0.1956997842509892,0.29728305557657975,0.19671694442342025,0.3547199611078232,2075.8200997591366,5172.245368909151
1.857600746268657,848.6312178551391,848.221546809552,0.1957433188470245,0.2972988064564972,0.19670119354350277,0.3547199611078235,2075.7924751921837,5173.6402540960535
1.8601915422885575,848.7367128131846,848.332869196332,0.1958291053184729,0.2973298441261527,0.19667015587384729,0.354719961107824,2075.738039999487,5176.42829324847
1.8653731343283584,848.9461033350665,848.55173179671,0.19600113575649933,0.29739208498786435,0.19660791501213565,0.35471996110782505,2075.6288793138256,5181.997449187083
1.8860995024875624,849.7733483168129,849.3979388213488,0.19670353566467141,0.2976462142922617,0.19635378570773832,0.35471996110782933,2075.183176469238,5204.182136791572
1.9068258706467665,850.5975964376719,850.2270665968986,0.19742834597210454,0.2979084517115793,0.1960915482884207,0.35471996110783377,2074.7232532658727,5226.2210760693515
1.9275522388059705,851.4270193741842,851.0565547276618,0.19817674911213437,0.298179225051911,0.19582077494808894,0.35471996110783843,2074.2483593991033,5248.116427806552
1.9482786069651745,852.2647064426959,851.8926004058842,0.19895024674337908,0.29845907761552065,0.19554092238447932,0.3547199611078432,2073.75754200218,5269.87051467493
1.9690049751243783,853.1120269805546,852.7376152197462,0.1997503892829862,0.29874857034557833,0.1952514296544217,0.35471996110784826,2073.249817268976,5291.485689451964
1.9897313432835824,853.9697743399148,853.5927415500471,0.20057874238110973,0.29904826969657794,0.19495173030342206,0.3547199611078535,2072.7241917273695,5312.9642917915935
2.010457711442786,854.8385509991487,854.4586987205271,0.20143687836030988,0.2993587445370998,0.1946412554629002,0.3547199611078589,2072.179667671311,5334.308634640045
2.0311840796019904,855.7188982226727,855.3360671612683,0.20232637523143535,0.2996805657937552,0.1943194342062448,0.3547199611078645,2071.615243785287,5355.5210005158815
2.0519104477611942,856.6113400257232,856.2253840120128,0.2032488182806472,0.3000143070253738,0.1939856929746262,0.3547199611078704,2071.029914137289,5376.6036410589
2.0726368159203985,857.5163984897248,857.127175646754,0.20420580259086132,0.30036054533526557,0.19363945466473442,0.35471996110787657,2070.4226665788447,5397.558777655989
2.093363184079602,858.4345995529162,858.0419691788459,0.20519893598133862,0.3007198624347685,0.1932801375652315,0.35471996110788295,2069.792480879727,5418.388602418582
2.114089552238806,859.3664756745623,858.9702970111733,0.20622984221311214,0.30109284580297674,0.19290715419702323,0.3547199611078896,2069.1383266939715,5439.095279273613
2.13481592039801,860.3125675108934,859.9126991255246,0.2073001644246258,0.30148008992975994,0.19251991007024008,0.35471996110789655,2068.459161379814,5459.680945091445
2.155542288557214,861.2734253145029,860.8697246739546,0.20841156878303377,0.30188219763680824,0.19211780236319173,0.35471996110790377,2067.7539276827883,5480.147710827604
2.176268656716418,862.2496102927464,861.8419333904034,0.20956574834089844,0.3022997814729917,0.1917002185270083,0.3547199611079113,2067.021551288485,5500.497662672696
2.1969950248756223,863.2416959994383,862.8298969912969,0.21076442707766097,0.3027334651765697,0.1912665348234303,0.3547199611079192,2066.2609382580636,5520.732863210412
2.2177213930348265,864.2502697793797,863.8342006162654,0.21200936409854687,0.3031838851943614,0.1908161148056386,0.3547199611079274,2065.4709723638675,5540.855352585123
2.2384477611940303,865.2759342654683,864.8554443195933,0.21330235795561525,0.3036516922451075,0.1903483077548925,0.35471996110793597,2064.6505123475354,5560.867149680793
2.259174129353234,866.3193089217636,865.8942446093728,0.21464525105473023,0.3041375529139188,0.1898624470860812,0.3547199611079449,2063.7983891235854,5580.770253312701
2.2799004975124384,867.3810316228283,866.9512360260421,0.21603993410832323,0.3046421512632923,0.1893578487367077,0.3547199611079543,2062.91340295395,5600.566643433079
2.300626865671642,868.4617602596608,868.0270727508175,0.21748835059703334,0.3051661904473388,0.18883380955266119,0.35471996110796405,2061.994320616871,5620.258282351371
2.321353233830846,869.5621743630343,869.122430234707,0.21899250120581754,0.3057103943167743,0.18828960568322572,0.35471996110797427,2061.039872592,5639.847115969468
2.3420796019900503,870.6829767364632,870.2380068398797,0.22055444820560424,0.30627550900420847,0.18772449099579153,0.354719961107985,2060.0487502800497,5659.33507503191
2.362805970149254,871.8248856180103,871.3745201378625,0.22217627738627138,0.3068622891514409,0.18713771084855907,0.35471996110799614,2059.0196301579517,5678.7240763991895
2.383532338308458,872.9886159942149,872.5326819370533,0.22386005336603879,0.3074714817403348,0.18652851825966518,0.35471996110800785,2057.951202136961,5698.016022911557
2.404258706467662,874.1750082622557,873.7133105338665,0.22560828434397176,0.30810399424094576,0.18589600575905424,0.3547199611080201,2056.841874657278,5717.212806985984
2.424985074626866,875.3848765440255,874.917222526244,0.22742330434858393,0.3087606711081714,0.18523932889182856,0.354719961108033,2055.69016667778,5736.316311934566
2.44571144278607,876.6190627283528,876.1452560797446,0.22930753371150545,0.30944238802150215,0.18455761197849788,0.35471996110804643,2054.494542394319,5755.328412352831
2.466437810945274,877.8784412341784,877.3982798032507,0.2312634818566443,0.3101500528941434,0.18384994710585667,0.3547199611080606,2053.25340946988,5774.250975391415
2.487164179104478,879.1639214903815,878.6771965238902,0.2332937502222245,0.31088460693021347,0.18311539306978658,0.3547199611080754,2051.9651171804176,5793.085862103043
2.518253731343284,881.1431629952882,880.6461859577992,0.23648442835387673,0.3120389989008213,0.1819610010991787,0.35471996110809906,2049.940495162536,5821.177858814856
2.5493432835820897,883.1866287410742,882.6788895337497,0.23985793425687738,0.31325953822397895,0.18074046177602107,0.35471996110812454,2047.7998610882576,5849.0830122556445
2.580432835820896,885.2978826323483,884.778845464803,0.24342430479495428,0.31454985625152415,0.17945014374847582,0.354719961108152,2045.536846137396,5876.807568683277
2.611522388059702,887.4807077129772,886.9498101142,0.24719411968887492,0.31591378074175813,0.17808621925824186,0.35471996110818166,2043.1447370237079,5904.357778860997
2.642611940298508,889.7391191721541,889.1957710509458,0.25117852463504775,0.3173553442237889,0.17664465577621108,0.35471996110821374,2040.6164613251492,5931.7399089575
2.673701492537314,892.0773778379768,891.5209606101557,0.2553892539369131,0.31887879218560145,0.17512120781439858,0.35471996110824844,2037.9445731232886,5958.960251614816
2.6944278606965177,893.6827976919582,893.1173096453674,0.25832821296822156,0.3199421118210175,0.17405788817898252,0.3547199611082732,2036.0796776625361,5977.020389031526
2.715154228855722,895.3271150005969,894.7522593950378,0.2613770467817328,0.32104518431181783,0.1729548156881822,0.3547199611082994,2034.145061943557,5995.013320739986
2.735880597014926,897.0117921011503,896.4272633009657,0.26453969513680853,0.3221894350686472,0.17181056493135274,0.35471996110832704,2032.1382260201892,6012.940945317751
2.75660696517413,898.739312624279,898.1438263508371,0.267824258549615,0.3233763353196295,0.17062366468037052,0.3547214206587173,2030.05402976776,6030.805172503485
2.7773333333333334,900.525743213734,899.9119051082134,0.2712794139109898,0.32460739924714327,0.16939260075285673,0.35474043694671875,2027.8615856128808,6048.608165792553
2.7980597014925377,902.3812191133198,901.7452084051005,0.27492183464550707,0.32588425051354436,0.16811574948645563,0.35478141877914265,2025.550313553084,6066.3525091681995
2.8187860696517415,904.3118151988895,903.6512880303337,0.27876287479516487,0.3272086248062665,0.16679137519373347,0.3548467383773998,2023.1130089621195,6084.0409718033525
2.8395124378109458,906.3230907431271,905.6360369706068,0.28281482155881227,0.32858233597760117,0.1654176640223988,0.3549390274155437,2020.5418750857239,6101.676451053324
2.8602388059701496,908.4207612113917,907.7051706124637,0.2870908953741306,0.33000726472723074,0.16399273527276925,0.3550611883673987,2017.828522989598,6119.2619660969995
2.880965174129354,910.6109030204935,909.8646854034895,0.29160528582167705,0.3314853496854611,0.16251465031453885,0.355216416413462,2014.9639487767536,6136.800663945844
2.901691542288557,912.8999832822237,912.1210149448932,0.2963731682029622,0.33301856701063076,0.1609814329893692,0.3554082258414676,2011.9385230680118,6154.295828654955
2.9224179104477614,915.2947130656098,914.4810877911772,0.3014106105837754,0.334608867782714,0.15939113221728599,0.35564047902092266,2008.7420499869982,6171.750888861445
2.9431442786069653,917.8014290818976,916.9523295775691,0.3067340895748456,0.33625797206309904,0.157742027936901,0.35591741715207187,2005.3640744180643,6189.169414969389
2.9638706467661695,920.4238858174818,919.5425705592309,0.312358617869432,0.3379666594520236,0.15603334054797643,0.3562436922488488,2001.7950701639365,6206.55507877049
2.9845970149253738,923.1555357841726,922.2594835197979,0.3182909314730715,0.33973227186947885,0.15426772813052111,0.35662439948782443,1998.0307629404158,6223.911481801076
3.0053233830845776,925.9545348675208,925.1052776368871,0.3245068638333961,0.3415405118980934,0.15245948810190663,0.3570650927927115,1994.0864874606887,6241.241540977051
3.026049751243782,928.6888447637539,928.0339533449504,0.3309008049067728,0.3433473859399166,0.15065261406008337,0.3575715558946681,1990.029257823585,6258.5456763762595
3.0467761194029856,931.1440600236016,930.8293278532108,0.3372927978365214,0.3450833459329146,0.1489166540670854,0.35814822820426284,1985.9732643671057,6275.818872340933
3.0571393034825878,932.2341617139103,932.0826760830503,0.34046465860890857,0.3459159703698795,0.14808402963012052,0.35846318759008516,1983.9605827701357,6284.440832658323
3.0675024875621895,933.2498540320636,933.2276855358889,0.34363841793163874,0.3467318569659337,0.1472681430340663,0.3587955717150827,1981.9466964616067,6293.051372586013
3.0882288557213933,935.1538590520505,935.2817049413871,0.3500733551887605,0.3483438237878159,0.14565617621218405,0.35951177451565386,1977.8634529889378,6310.235046596033
3.1089552238805975,937.0174025529521,937.1957301588557,0.3567225854583721,0.34996440386641403,0.14403559613358596,0.360296895581892,1973.6442314158576,6327.366873525809
3.129681592039802,938.931588543209,939.112515689697,0.3636488470011823,0.3516136207659948,0.14238637923400518,0.36115361014314884,1969.249221627164,6344.447569206498
3.1504079601990056,940.939121629106,941.1019507045914,0.37088336236987607,0.3532984173926115,0.14070158260738846,0.36208627165816726,1964.6586115750692,6361.479696042409
3.1711343283582094,943.061356617787,943.196503985249,0.3784471080550547,0.35502111042760737,0.1389788895723926,0.363100152770294,1959.859090777294,6378.4666474328305
3.191860696517413,945.3119468522673,945.4137356644396,0.38635864662296776,0.3567825878112113,0.13721741218878863,0.36420108150266234,1954.8388804900146,6395.412240310953
3.2125870646766175,947.7023142041271,947.7662193665009,0.3946364458911965,0.3585832949925387,0.13541670500746128,0.36539529408931376,1949.5862620914977,6412.320577445922
3.2333134328358213,950.2436051476604,950.2652983762862,0.403299457720023,0.36042350351051317,0.13357649648948686,0.3666893758018317,1944.0892098141717,6429.1960112943725
3.254039800995025,952.9473371533295,952.9223818335242,0.4123671974986632,0.3623033713049318,0.1316966286950682,0.36809022939651087,1938.3353403072053,6446.043142578686
3.2747661691542294,955.8255927366025,955.7493581774622,0.42185967479133074,0.36422294633610464,0.12977705366389536,0.36960504640236336,1932.3119566445525,6462.866829782677
3.295492537313433,958.8910594508818,958.7587083415559,0.4317972610130897,0.36618215477842264,0.12781784522157738,0.37124127105248217,1926.006132290294,6479.672201540008
3.316218905472637,962.1570102440094,961.9635136375124,0.4422005087252575,0.368180784080075,0.12581921591992504,0.37300655184513903,1919.4048257634502,6496.464669147189
3.336945273631841,965.6372500887928,965.377417186602,0.45308991934654547,0.3702184631432067,0.12378153685679329,0.3749086773211805,1912.4950280352161,6513.249938020525
3.357671641791045,969.3460329551314,969.014553168047,0.4644856518526887,0.3722946399543679,0.12170536004563211,0.3769554930406837,1905.2639473715324,6530.034017310549
3.3783980099502493,973.2979463503718,972.8894441172287,0.4764071641283252,0.3744085565835737,0.11959144341642627,0.3791547968244856,1897.6992369106865,6546.823226909283
3.399124378109453,977.507758455092,977.0168620909504,0.4888727787705953,0.3765592214148831,0.11744077858511688,0.3815142094307182,1889.7892701795386,6563.62420099182
3.4198507462686574,981.9902221952225,981.4116480970923,0.50189916601418,0.3787453785078099,0.11525462149219014,0.3840410181149268,1881.523469199745,6580.443887102952
3.4405771144278616,986.7598305849606,986.0884838441077,0.5155007381804475,0.3809654740654942,0.11303452593450579,0.38674199107272245,1872.8926887357268,6597.2895396596705
3.461303482587065,991.830518211344,991.0616101474474,0.5296889528599317,0.3832176200972182,0.11078237990278175,0.3896231616676778,1863.8896584552508,6614.168706606024
3.4820298507462693,997.2153048776072,996.3444872185333,0.5444715261171137,0.38549955551332143,0.10850044448667856,0.3926895826727616,1854.509482184715,6631.08920784257
3.502756218905473,1002.9258792945959,1001.9493936637151,0.5598515624956582,0.3878086050842698,0.10619139491573024,0.3959450525459035,1844.7501899581123,6648.059103974765
3.5234825870646773,1008.9721234108966,1007.8869634586848,0.5758266155183766,0.3901416369351375,0.10385836306486253,0.399391818023038,1834.6133341700677,6665.08665390294
3.544208955223881,1015.3615815525548,1014.1656635246852,0.5923877005559479,0.39249501953124605,0.10150498046875395,0.40303025998693864,1824.1046159529417,6682.180259832569
3.575298507462687,1025.598476083364,1024.2349574428977,0.618289682833451,0.3960539633377324,0.09794603666226755,0.4088426908948004,1807.668698112911,6707.9630674897035
3.606388059701493,1036.6172839062028,1035.0883733091646,0.645378364651594,0.3996325926126288,0.09436740738737119,0.4150647859473257,1790.4797685557926,6733.942037476696
3.637477611940299,1048.3955467569758,1046.7085626034163,0.673511400430774,0.4032111364289303,0.0907888635710697,0.4216648152345911,1772.6281516523698,6760.144790908018
3.668567164179105,1060.8838611465922,1059.0517100471295,0.7024919845830208,0.40676646837707264,0.08723353162292737,0.4285947006193048,1754.238728982734,6786.597152535651
3.699656716417911,1074.0023055952138,1072.043619976225,0.7320667902247316,0.41027208338770327,0.08372791661229675,0.43578929313731624,1735.4722473113982,6813.322050151213
3.7307462686567168,1087.6382413288343,1085.577106174772,0.7619274513846964,0.41369826049433767,0.08030173950566234,0.4431667464999707,1716.5243780627793,6840.338308683716
3.751472636815921,1096.944079195926,1094.8305710884538,0.7818144546551214,0.41592183568287616,0.07807816431712382,0.4481383179066211,1703.9052221875545,6858.521569674367
3.772199004975125,1106.3420389348903,1104.1913429598258,0.8015022885514226,0.4180798760978452,0.07592012390215482,0.45310336431872983,1691.4124478160415,6876.891301396857
3.792925373134329,1115.7691361723037,1113.596546035527,0.8208588315198727,0.42016117224241806,0.07383882775758194,0.45802529346356957,1679.1298917364327,6895.460643431031
3.8136517412935333,1125.1645741125915,1122.9855244909888,0.8397630137703811,0.42215601643157585,0.0718439835684242,0.46287000980070075,1667.134377919246,6914.229088586633
3.834378109452737,1134.464853551843,1132.2948701822595,0.8580937214477747,0.4240548615773758,0.06994513842262419,0.4676032412497966,1655.502758296182,6933.194461103703
3.855104477611941,1143.604689878779,1141.4591755739718,0.8757318359964911,0.4258484825238813,0.06815151747611872,0.47219111570081446,1644.3106186958264,6952.352850601219
3.875830845771145,1152.51808091753,1150.4120949358662,0.8925621709498164,0.4275281425645553,0.06647185743544468,0.476600695229754,1633.6310498678722,6971.698574459914
3.896557213930349,1161.1394014748394,1159.0874738996397,0.9084752374512903,0.42908576091362355,0.06491423908637646,0.4808004473954968,1623.5335271841227,6991.224171407931
3.917283582089553,1169.4044611461793,1167.4204580279393,0.9233687732365103,0.4305140769586097,0.0634859230413903,0.48476063417510246,1614.0829404340097,7010.920426704055
3.9380099502487567,1177.2514735218965,1175.3485222473912,0.9371489771884336,0.43180680781238323,0.06219319218761678,0.4884536010756577,1605.3388104463452,7030.7764276725875
3.958736318407961,1184.6218852516783,1182.8123688168578,0.9497313969460611,0.43295879710144025,0.06104120289855974,0.4918539494841043,1597.3547258635692,7050.779646791984
3.9794626865671647,1191.4610084645851,1189.756640209351,0.9610414158826092,0.43396615540463523,0.06003384459536473,0.4949385724179138,1590.1780341332324,7070.916047907905
4.000189054726369,1197.7183871989764,1196.130385871004,0.9710142712788158,0.43482639705090076,0.05917360294909924,0.49768652430249766,1583.8498299762507,7091.170209290948
4.020915422885572,1203.3477988665973,1201.8872027476275,0.9795944939636623,0.43553858591447314,0.05846141408552689,0.5000786724371822,1578.4053109588865,7111.5254549050205
4.041641791044777,1208.306723490542,1206.9849247778825,0.9867345588847901,0.436103519213433,0.05789648078656701,0.5020970249710899,1573.8746337636485,7131.963981730961
4.062368159203981,1212.5549487181086,1211.3846321943636,0.9923922915548038,0.4365240175560727,0.05747598244392732,0.5037235025052872,1570.2845599102675,7152.466964676753
4.072731343283582,1214.3999284237102,1213.310960720497,0.9946524430180534,0.43668166795661995,0.057318332043380035,0.5043835781786123,1568.8503969432013,7162.736479161033
4.083094527363184,1216.0515497153087,1215.0484951186247,0.996525956586832,0.43680550353585185,0.05719449646414813,0.5049375825228788,1567.6615722903728,7173.014606785454
4.090003316749585,1217.0421442210863,1216.0993877163758,0.9975568860933364,0.4368699085235666,0.05713009147643342,0.5052461693242103,1567.0074033358023,7179.870177825888
4.096912106135988,1217.9418758456795,1217.0623291106767,0.9984106004936866,0.43692036217975494,0.057079637820245076,0.5055045907749155,1566.4656849610205,7186.727605651511
4.1038208955223885,1218.7482494972678,1217.9354264632984,0.9990842382620838,0.4369574996369371,0.05704250036306291,0.5057111764382943,1566.0382329267823,7193.586070895591
4.114184079601991,1219.7762355868633,1219.0719985093144,0.999749592407717,0.4369901844519456,0.057009815548054406,0.5059192177171296,1565.6160372062004,7203.873866933051
4.119365671641791,1220.2055588718956,1219.5604630501728,0.9999241221345113,0.4369974010498926,0.057002598950107425,0.5059751462271924,1565.5052906147039,7209.01701233616
4.1219564676616915,1220.3987179924654,1219.7845214636716,0.9999721074564315,0.4369991310726378,0.057000868927362176,0.5059907773634382,1565.4748418714316,7211.58823206628
4.123251865671643,1220.4900364175505,1219.8915554467865,0.9999867137361009,0.43699960995418674,0.05700039004581327,0.505995583055035,1565.465573560998,7212.873733083048
4.124547263681593,1220.5780216257353,1219.9953296987787,0.999995547993648,0.4369998783658592,0.05700012163414083,0.505998510890542,1565.4599678459736,7214.159153964132
4.125122996130459,1220.6161272212619,1220.0404318806732,0.9999978063536731,0.43699994230068034,0.057000057699319685,0.5059992640336498,1565.4585348197506,7214.730425013223
4.1256987285793265,1220.653675015851,1220.0849263404307,0.9999991826244754,0.4369999794448774,0.05700002055512259,0.5059997248262229,1565.4576615169435,7215.301678759153
4.126274461028194,1220.6907283595453,1220.1288335559632,0.9999998352332807,0.4369999961419997,0.057000003858000296,0.505999944243912,1565.4572474086876,7215.872914816565
4.12685019347706,1220.7273812735416,1220.1721817984237,0.9999999977563018,0.43700000006790995,0.05699999993209004,0.5059999991190661,1565.4571442808656,7216.444132857382
4.126922160033169,1220.7319411698381,1220.177562851513,0.9999999995522454,0.43700000010887136,0.056999999891128646,0.5059999997278797,1565.4571431412623,7216.515533832452
4.126994126589278,1220.7364973511674,1220.1829358723492,0.9999999999855373,0.437000000118507,0.05699999988149303,0.5059999998750098,1565.4571428663198,7216.586934521718
4.127066093145386,1220.7410502005778,1220.1883009608432,1.0000000000034568,0.43700000011869855,0.056999999881301465,0.5059999998813015,1565.4571428549493,7216.658334924864
4.127138059701494,1220.7455998897015,1220.1936581857642,1.0000000000034568,0.4370000001184845,0.05699999988151551,0.5059999998815156,1565.4571428549493,7216.729735041603
4.127210026257602,1220.7501464437798,1220.1990075937392,1.0000000000034568,0.43700000011827045,0.056999999881729574,0.5059999998817296,1565.4571428549493,7216.801134871653
4.12728199281371,1220.7546898810324,1220.2043492300782,1.0000000000034568,0.43700000011805634,0.05699999988194366,0.5059999998819437,1565.4571428549493,7216.872534414735
4.127425925925927,1220.763767477411,1220.2150093677785,1.0000000000034568,0.43700000011762813,0.05699999988237189,0.5059999998823719,1565.4571428549493,7217.01533263889
4.12771379215036,1220.7818860582809,1220.236238348262,1.0000000000034568,0.43700000011677137,0.056999999883228604,0.5059999998832286,1565.4571428549493,7217.300925631495
4.128001658374794,1220.7999567617867,1220.2573479361097,1.0000000000034568,0.43700000011591433,0.05699999988408565,0.5059999998840856,1565.4571428549493,7217.586514002137
4.1285773908236605,1220.8359589255683,1220.2992198485288,1.0000000000034568,0.43700000011419926,0.05699999988580073,0.5059999998858007,1565.4571428549493,7218.157676810476
4.129153123272527,1220.8717824967632,1220.3406463131928,1.0000000000034568,0.4370000001124829,0.05699999988751712,0.5059999998875171,1565.4571428549493,7218.728820933786
4.13030458817026,1220.942926055564,1220.4222429618126,1.0000000000034568,0.43700000010904616,0.05699999989095382,0.5059999998909538,1565.4571428549493,7219.8710526355
4.131456053067994,1221.0134482347612,1220.5022890737926,1.0000000000034568,0.43700000010560425,0.056999999894395734,0.5059999998943957,1565.4571428549493,7221.01320818504
4.134910447761195,1221.2218162944432,1220.7344417014933,1.0000000000034568,0.4370000000952476,0.05699999990475241,0.5059999999047524,1565.4571428549493,7224.4392099474435
4.138364842454396,1221.4263142516156,1220.9569225285697,1.0000000000034568,0.43700000008484496,0.056999999915155024,0.505999999915155,1565.4571428549493,7227.864500592244
4.141819237147597,1221.62789057317,1221.1720901294707,1.0000000000034568,0.4370000000743969,0.05699999992560314,0.5059999999256032,1565.4571428549493,7231.289066292074
4.145273631840797,1221.8272631668594,1221.3817297091084,1.0000000000034568,0.43700000006390355,0.056999999936096446,0.5059999999360965,1565.4571428549493,7234.71289690102
4.1504552238805985,1222.123341518673,1221.6886872800728,1.0000000000034568,0.43700000004807926,0.05699999995192077,0.5059999999519208,1565.4571428549493,7239.847249010995
4.155636815920399,1222.4169641312244,1221.989429943518,1.0000000000034568,0.4370000000321539,0.05699999996784609,0.5059999999678461,1565.4571428549493,7244.979914595936
4.1608184079602,1222.7089941294607,1222.2861039206687,1.0000000000034568,0.43700000001612754,0.05699999998387244,0.5059999999838725,1565.4571428549493,7250.110884288787
4.166,1222.9999999999998,1222.5801227760194,1.0000000000034568,0.437,0.05700000000000001,0.506,1565.4571428549493,7255.240153410106
