z,T,t,fs,x,y,w,rhob,p
0.0,556.2444949713706,298.0,0.0,0.22647928754487115,0.2675207124551289,0.35471926301359463,2200.0,2040.0
0.002269063180827887,577.0183778528733,345.8235916953326,5.089184843348382e-07,0.2264794716723161,0.26752052832768386,0.35471926301359463,2199.9996770694106,2044.713058059837
0.004538126361655774,595.5187058452344,388.0628268155745,2.1137885702399587e-06,0.2264800523166383,0.26751994768336174,0.35471926301359463,2199.9986587105614,2049.6839882820477
0.009076252723311548,626.836714687621,458.8558010802603,1.2199627703996916e-05,0.22648370138784907,0.2675162986121509,0.35471926301359463,2199.9922588133804,2060.2941809363824
0.01361437908496732,652.0485754859012,515.2292876946933,3.6899103622012026e-05,0.2264926376940204,0.2675073623059796,0.35471926301359463,2199.976585937362,2071.644099117888
0.018152505446623095,672.4926939814363,560.554362632075,8.03910181274225e-05,0.2265083731316988,0.26749162686830125,0.35471926301359463,2199.948988453669,2083.5813318759047
0.02269063180827887,689.1650429534354,597.2643039885987,0.000144205661207638,0.22653146136201877,0.2674685386379812,0.35471926301359463,2199.908495327721,2095.981444559561
0.02722875816993464,702.8231268359878,627.1663752818596,0.00022807849750987194,0.22656180667570644,0.2674381933242936,0.35471926301359463,2199.855274418537,2108.7428730936103
0.0340359477124183,718.9050733194168,662.1687336397003,0.00038863353579351626,0.22661989572116684,0.26738010427883313,0.35471926301359463,2199.7533953658162,2128.3854116656817
0.04084313725490196,730.9726428129468,688.2716353117277,0.0005856563573528173,0.22669117886345028,0.2673088211365497,0.35471926301359463,2199.6283759417015,2148.4394836258075
0.04765032679738562,740.0757450687445,707.851227279194,0.0008131655011919698,0.22677349200130265,0.26722650799869735,0.35471926301359463,2199.484011639544,2168.744093955372
0.05445751633986928,746.9733721806078,722.6039220390836,0.0010658073589409963,0.2268648981914594,0.2671351018085406,0.35471926301359463,2199.323699553294,2189.1807568321556
0.06126470588235294,752.2213249732135,733.7605068519987,0.001339093048533538,0.2269637733498856,0.2670362266501144,0.3547192630135947,2199.1502880710036,2209.6625029731895
0.0680718954248366,756.2304939551469,742.2245885112069,0.0016293817253069168,0.22706880021370746,0.26693119978629254,0.3547192630135947,2198.9660874646474,2230.1257633843497
0.07487908496732026,759.306782477076,748.6654050931284,0.001933774721382635,0.227178930040687,0.266821069959313,0.3547192630135947,2198.7729370632233,2250.5243591750586
0.08168627450980392,761.6791201416779,753.5818437915441,0.0022499897032426178,0.22729333707925078,0.26670666292074924,0.3547192630135947,2198.5722851051623,2270.8250399574486
0.08849346405228758,763.5194921864671,757.3475980652098,0.002576242074789413,0.22741137565994524,0.26658862434005476,0.3547192630135947,2198.3652639931715,2291.0041653541457
0.09530065359477125,764.957470996376,760.243583777627,0.002911142733779189,0.22753254320356606,0.26646745679643397,0.3547192630135947,2198.152755172157,2311.0452330937146
0.1021078431372549,766.0908784628715,762.4815283608365,0.0032536136942082124,0.22765644969321533,0.2663435503067847,0.35471926301359474,2197.935442670438,2330.9370357773805
0.10891503267973857,766.9936774576239,764.2213182427976,0.0036028201218883055,0.22778279308467422,0.26621720691532574,0.35471926301359474,2197.713856226085,2350.672285493067
0.11572222222222223,767.7218512563284,765.5838596254188,0.003958116383696149,0.22791133978694345,0.26608866021305655,0.35471926301359474,2197.4884055209855,2370.246587175491
0.12252941176470589,768.3178059423625,766.6606719788927,0.004319003617921974,0.22804190931113355,0.26595809068886644,0.35471926301359474,2197.2594071042736,2389.657672262356
0.1361437908496732,769.2337826587452,768.2174972932421,0.005056098509353312,0.22830859131074382,0.26569140868925617,0.3547192630135948,2196.791688805879,2427.988472442251
0.14975816993464053,769.9163608530313,769.268574934649,0.00581195953307781,0.2285820629242058,0.2654179370757942,0.3547192630135948,2196.312062592282,2465.670672631347
0.16337254901960785,770.4659281696424,770.0302471350441,0.006585308132295728,0.228861861567817,0.26513813843218303,0.35471926301359485,2195.821339762567,2502.7199518449734
0.17698692810457517,770.9402004564038,770.6268647933065,0.007375379958420265,0.22914771069915132,0.2648522893008487,0.3547192630135949,2195.3200053286696,2539.1565529397285
0.1906013071895425,771.3723441522718,771.12987678113,0.008181716509502663,0.22943944443153944,0.26456055556846053,0.3547192630135949,2194.8083502297272,2575.002495137817
0.2042156862745098,771.7814051153927,771.5803090262456,0.009004041679442635,0.2297369628693943,0.2642630371306057,0.35471926301359497,2194.2865496668933,2610.2800801796075
0.21783006535947713,772.1783119848312,772.0016999189423,0.00984218878339494,0.23004020570589734,0.26395979429410266,0.354719263013595,2193.754709408845,2645.0111177440854
0.24505882352941177,772.9580321047762,772.8055227527401,0.011565588684054853,0.2306637342867882,0.2633362657132118,0.3547192630135951,2192.6611383118807,2712.91628496168
0.2722875816993464,773.7359444616063,773.5939404940895,0.013351519796022712,0.23130988675052447,0.26269011324947555,0.3547192630135952,2191.5278884814325,2778.872954072761
0.29951633986928106,774.520037690482,774.3840927106828,0.015199889108942917,0.23197862944582465,0.26202137055417535,0.3547192630135953,2190.355018936557,2843.0194349971493
0.3267450980392157,775.3129727763237,775.1816283577425,0.017110750639602098,0.23266998191604044,0.26133001808395956,0.3547192630135954,2189.1424954012878,2905.4788520472043
0.35397385620915034,776.1156754688326,775.9884467454881,0.01908424914389933,0.23338399653406583,0.26061600346593417,0.3547192630135955,2187.8902260218038,2966.3611001823874
0.381202614379085,776.9285121393858,776.8052320415118,0.02112059765991491,0.23412075037738694,0.25987924962261305,0.35471926301359563,2186.598075616313,3025.764674781234
0.4084313725490196,777.7516728489619,777.6322793900476,0.023220067040266523,0.23488034144087325,0.2591196585591268,0.35471926301359574,2185.265872317221,3083.778246217687
0.43566013071895426,778.5852954864791,778.4697629177617,0.025382979947090316,0.23566288646415307,0.25833711353584693,0.3547192630135959,2183.8934113815735,3140.481983486852
0.4628888888888889,779.429505731861,779.3178222267152,0.027609706690926935,0.23646851942611652,0.2575314805738835,0.354719263013596,2182.480457831463,3195.94866251345
0.4765032679738562,779.8556204924458,779.7458592725604,0.028747128186678704,0.23688004017115616,0.25711995982884384,0.35471926301359613,2181.758715145773,3223.2390582177804
0.49011764705882355,780.2844297934708,780.1765901312375,0.029900661969482694,0.23729739036499453,0.25670260963500546,0.3547192630135962,2181.0267485234217,3250.24459675737
0.5173464052287582,781.1501983923442,781.0462014648571,0.03225630217624813,0.23814966440461321,0.2558503355953868,0.35471926301359635,2179.53199385622,3303.430422996316
0.5309607843137255,781.587191794611,781.4851168337381,0.033458532561229326,0.2385846330996701,0.25541536690032995,0.35471926301359646,2178.76912715279,3329.624608402115
0.5445751633986928,782.0269479631937,781.9267958470936,0.03467712303827285,0.2390255208997373,0.25497447910026266,0.3547192630135966,2177.9958792698,3355.5617676142465
0.5581895424836602,782.4694848974547,782.3712568390018,0.03591214139102447,0.23947235232903613,0.25452764767096386,0.35471926301359663,2177.212207195621,3381.2481644412633
0.5718039215686275,782.9148209786894,782.8185185105795,0.037163657623179344,0.23992515271500495,0.2540748472849951,0.35471926301359674,2176.418066509909,3406.689816178151
0.5854183006535948,783.362974970083,783.2685999320744,0.03843174390793486,0.24038394817001105,0.253616051829989,0.35471926301359685,2175.613411415676,3431.892507205645
0.5990326797385621,783.8139660164245,783.7215205438981,0.039716474540379576,0.24084876557412513,0.25315123442587484,0.35471926301359696,2174.798194769506,3456.8618016374357
0.6126470588235294,784.2678136438655,784.1773001571903,0.04101792589258393,0.24131963255887293,0.25268036744112704,0.3547192630135971,2173.972368110046,3481.603055095636
0.6262614379084968,784.7245377599007,784.6359589542493,0.04233617637117894,0.24179657749188718,0.25220342250811284,0.3547192630135972,2173.1358816849283,3506.1214256869894
0.6398758169934641,785.1841586536932,785.0975174890248,0.043671306377227284,0.24227962946238882,0.2517203705376112,0.3547192630135973,2172.2886844762334,3530.421884245288
0.6534901960784314,785.646696996855,785.5619966877925,0.04502339826820676,0.24276881826743257,0.2512311817325674,0.3547192630135974,2171.4307242246114,3554.5092238992147
0.6671045751633986,786.112173844803,786.0294178501002,0.046392536321940375,0.24326417439885703,0.250735825601143,0.3547192630135975,2170.5619474521723,3578.388069019276
0.6807189542483659,786.5806106388427,786.4998026500599,0.04777880670232002,0.24376572903088298,0.250234270969117,0.3547192630135977,2169.6822994842337,3602.062883592506
0.6943333333333332,787.0520292091852,786.9731731380729,0.04918229742668223,0.24427351400831038,0.24972648599168962,0.3547192630135978,2168.7917244700234,3625.537979069197
0.7079477124183007,787.526451779191,787.4495517430951,0.05060309833470537,0.244787561835265,0.249212438164735,0.35471926301359796,2167.890165402415,3648.817521721919
0.721562091503268,788.0039009712532,787.9289612755905,0.05204130105870732,0.2453079056644522,0.2486920943355478,0.3547192630135981,2166.977564136776,3671.905539553555
0.7351764705882353,788.4843998149104,788.4114249313765,0.0534969989952327,0.24583457928687713,0.24816542071312286,0.35471926301359824,2166.0538614089965,3694.805928787846
0.7487908496732026,788.9679717580364,788.8969662966501,0.054970287277827296,0.2463676171219945,0.24763238287800549,0.35471926301359835,2165.1189968527638,3717.5224599731105
0.76240522875817,789.4546406823155,789.3856093546062,0.05646126275090744,0.24690705420825443,0.24709294579174557,0.3547192630135985,2164.1729090161457,3740.0587837272174
0.7760196078431372,789.9444309247476,789.8773784942259,0.05797002394464155,0.2474529261940146,0.2465470738059854,0.3547192630135987,2163.2155353775274,3762.418436149598
0.7896339869281045,790.4373673076896,790.3722985220659,0.05949667105077225,0.2480052693287927,0.24599473067120733,0.35471926301359885,2162.246812360954,3784.604843924035
0.8032483660130718,790.9334751810577,790.8703946782223,0.06104130589932002,0.24856412045483756,0.24543587954516244,0.354719263013599,2161.2666753509143,3806.6213291341587
0.8168627450980392,791.432780481941,791.3716926581546,0.06260403193612557,0.2491295169990043,0.2448704830009957,0.3547192630135992,2160.275058706588,3828.4711138120206
0.844091503267974,792.4410905914508,792.3839993295866,0.06578417930923425,0.2502800989259376,0.24371990107406238,0.3547192630135996,2158.2571189063206,3871.6829950261645
0.8713202614379085,793.462521138976,793.4094346948456,0.06903797225006922,0.2514573259259707,0.2425426740740293,0.35471926301359996,2156.1924478370915,3914.26442058938
0.8849346405228758,793.9782316622608,793.9271461004116,0.07069276100194119,0.25205603089382733,0.24194396910617266,0.35471926301360013,2155.142413454511,3935.32581992459
0.8985490196078432,794.497315988504,794.4482259137715,0.0723662943987943,0.25266151770139506,0.24133848229860494,0.35471926301360035,2154.0804847913478,3956.23797552584
0.9257777777777778,795.5457544966664,795.5006157543881,0.07577005341215907,0.25389300264373765,0.24010699735626234,0.3547192630136008,2151.920653821982,3997.625005994595
0.9393921568627452,796.0751945676178,796.0319928166017,0.07750051184524473,0.2545190850118863,0.2394809149881137,0.354719263013601,2150.8226037836844,4018.104931241252
0.9530065359477126,796.6081841386159,796.5668732045011,0.0792501805446227,0.255152117682211,0.23884788231778897,0.35471926301360124,2149.7123640081277,4038.445719364687
0.9666209150326799,797.1447885693211,797.1052979101463,0.08101917957552335,0.2557921440944861,0.2382078559055139,0.3547192630136015,2148.589858308777,4058.649733801148
0.9802352941176471,797.6850900836505,797.6473132449491,0.08280763048133681,0.25643920822328614,0.23756079177671388,0.35471926301360174,2147.4550095611426,4078.7192785062252
0.9938496732026144,798.2291955829991,798.1929731117135,0.08461565631316345,0.25709335458867755,0.23690664541132245,0.354719263013602,2146.307739684027,4098.6566009937005
1.0074640522875817,798.7772482313972,798.7423423859434,0.08644338168268091,0.25775462827534584,0.23624537172465415,0.3547192630136023,2145.147969605981,4118.463895617767
1.021078431372549,799.3294446207718,799.2955020023265,0.08829093285014655,0.25842307496443506,0.2355769250355649,0.35471926301360257,2143.9756192094596,4138.143307271457
1.0346928104575164,799.8860601287341,799.8525567067738,0.09015843786595955,0.2590987409847652,0.23490125901523481,0.35471926301360285,2142.790607240997,4157.696935750911
1.0483071895424838,800.447486144797,800.4136470617398,0.09204602679501515,0.25978167339400365,0.23421832660599634,0.3547192630136031,2141.592851168843,4177.126841143861
1.061921568627451,801.0142841047744,800.9789683945968,0.09395383207120896,0.2604719201069258,0.23352807989307417,0.35471926301360346,2140.382266958015,4196.435050748567
1.0755359477124182,801.5872624312352,801.5488013258567,0.09588198906050692,0.2611695300991343,0.2328304699008657,0.35471926301360374,2139.158768713006,4215.623568216974
1.0891503267973857,802.1675826548571,802.1235618774291,0.09783063696479141,0.26187455373407176,0.23212544626592824,0.35471926301360407,2137.9222681042556,4234.694385822243
1.102764705882353,802.7568981919375,802.7038845512021,0.0997999202907848,0.26258704329447974,0.23141295670552028,0.3547192630136044,2136.672673436056,4253.649500904286
1.1163790849673203,803.3575197147635,803.2907588923877,0.1017899912578575,0.26330705385354697,0.23069294614645303,0.35471926301360474,2135.409888118693,4272.490937473926
1.1299934640522875,803.972579370895,803.8857447789347,0.10380101373079854,0.26403464469779153,0.22996535530220846,0.35471926301360507,2134.133808172934,4291.220773319951
1.143607843137255,804.6061286330403,804.4912801716915,0.10583316947462401,0.2647698815900596,0.2292301184099404,0.35471926301360546,2132.844318261088,4309.841171262187
1.1572222222222224,805.2630598002619,805.1110397803442,0.10788666749499558,0.26551284014890236,0.22848715985109763,0.35471926301360585,2131.541285760104,4328.354410006493
1.1708366013071896,805.9487253693752,805.7501817120135,0.10996175644850059,0.2662636103386334,0.22773638966136664,0.35471926301360623,2130.2245528867215,4346.762905773956
1.179912854030501,806.4243465964306,806.1902075408807,0.11135729053057143,0.26676851659135215,0.22723148340864785,0.3547192630136065,2129.339026703044,4358.978302029971
1.1889891067538125,806.9162635347875,806.6438068892694,0.11276265814498275,0.2672769806303184,0.2267230193696816,0.3547192630136068,2128.4472607216594,4371.149064236756
1.1980653594771242,807.4253541834506,807.1129873790567,0.11417797699101008,0.26778904503930046,0.22621095496069954,0.35471926301360707,2127.549180257333,4383.275991900724
1.207141612200436,807.9520491316941,807.5994590981101,0.1156033768338937,0.26830475676755033,0.2256952432324497,0.35471926301360734,2126.6447029684587,4395.3598883930445
1.2162178649237474,808.4963026565574,808.1044447470111,0.11703899741862679,0.26882416637500894,0.22517583362499108,0.3547192630136076,2125.733740180849,4407.401549702608
1.2252941176470589,809.0576227453123,808.628559681626,0.11848498538520914,0.2693473269162407,0.22465267308375933,0.3547192630136079,2124.8161988451398,4419.401753474681
1.2343703703703703,809.6351496307376,809.1717855564189,0.11994149063384019,0.2698742926253549,0.2241257073746451,0.35471926301360823,2123.89198384323,4431.361249628884
1.243446623093682,810.2277629597575,809.7335326941086,0.12140866265866639,0.2704051175895503,0.22359488241044964,0.35471926301360857,2122.9610003146768,4443.280753436821
1.2525228758169935,810.8341957578568,810.3127645032292,0.12288664728695621,0.27093985456934405,0.22306014543065594,0.3547192630136089,2122.0231557258285,4455.16094140603
1.261599128540305,811.4531375600482,810.9081490975335,0.12437558408322921,0.27147855405938137,0.22252144594061862,0.35471926301360923,2121.078361517016,4467.0024498339135
1.2706753812636167,812.0833161821437,811.5182073742819,0.12587560447975005,0.2720212636120461,0.22197873638795393,0.35471926301360956,2120.126534288835,4478.805875568308
1.2797516339869281,812.7235545470634,812.1414373671035,0.12738683053090455,0.27256802738679176,0.2214319726132082,0.35471926301360995,2119.167596592547,4490.571778364122
1.2888278867102396,813.3728040326189,812.7764059620768,0.12890937408046108,0.27311888584885596,0.22088111415114403,0.3547192630136103,2118.201477458487,4502.300684224262
1.297904139433551,814.03015857508,813.421807690475,0.13044333607128214,0.27367387551951244,0.22032612448048755,0.3547192630136107,2117.228112834083,4513.993089201931
1.3069803921568628,814.6948546556588,814.0764953543309,0.13198880569633692,0.27423302866890675,0.21976697133109324,0.35471926301361106,2116.247446122573,4525.649463268092
1.3205947712418302,815.7043183824468,815.0738397516843,0.13432874932757177,0.2750796236647571,0.2189203763352429,0.3547192630136117,2114.762651605256,4543.067440102724
1.3342091503267974,816.7272648798618,816.0872726149931,0.13669494157531964,0.27593571544809037,0.21806428455190963,0.35471926301361234,2113.261201215821,4560.406782766884
1.3478235294117646,817.7625164797536,817.1148521790869,0.13908746168110148,0.2768013326886037,0.21719866731139634,0.354719263013613,2111.743044672126,4577.668847669699
1.3614379084967319,818.8092297735648,818.155178627046,0.14150622215128933,0.2776764437309756,0.21632355626902441,0.3547192630136137,2110.208237492629,4594.854930399487
1.3705141612200435,819.5130872345428,818.8552973026813,0.14313314712924258,0.2782650675450596,0.2157349324549404,0.35471926301361417,2109.1758838687615,4606.270723473019
1.3795904139433552,820.221591554612,819.5603847145833,0.14477138059198413,0.2788577827853235,0.21514221721467647,0.35471926301361467,2108.1363545266463,4617.65365921025
1.3886666666666667,820.9345793394621,820.2702260638189,0.14642059744032757,0.2794544718304107,0.21454552816958927,0.3547192630136152,2107.08985575565,4629.004087431237
1.3977429193899784,821.6518672882186,820.9846102161438,0.14808030256992846,0.28005495555085214,0.2139450444491479,0.3547192630136157,2106.036701720699,4640.3223496264
1.4068191721132897,822.3732290579685,821.7033063804694,0.14974976121307174,0.28065896810662383,0.21334103189337617,0.3547192630136163,2104.977358663397,4651.608778417891
1.4158954248366014,823.0983661984379,822.4260366067776,0.15142790206631637,0.28126612189858885,0.21273387810141114,0.35471926301361684,2103.912506371691,4662.863696461546
1.424971677559913,823.8268706740612,823.1524418410231,0.15311318473516564,0.28187585960978656,0.21212414039021343,0.35471926301361745,2102.8431222919057,4674.087414646422
1.4340479302832243,824.5581763397572,823.8820390244722,0.1548034227467922,0.2824873901711803,0.21151260982881973,0.35471926301361806,2101.770593834757,4685.280229396349
1.443124183006536,825.2914972531461,824.6141669302116,0.15649555602926726,0.2830996064443128,0.21090039355568718,0.35471926301361867,2100.6968627470287,4696.442418829817
1.4522004357298475,826.0257526807577,825.347919678644,0.1581853755930667,0.2837109856106764,0.2102890143893236,0.35471926301361933,2099.6245998129593,4707.574237513204
1.4612766884531592,826.7594832843796,826.0820701108196,0.1598672229279818,0.2843194804130796,0.2096805195869204,0.35471926301362,2098.5573955997843,4718.675909590671
1.4703529411764706,827.4907715175358,826.8149915516398,0.16153372193014748,0.2849224221664576,0.2090775778335424,0.35471926301362067,2097.4999305615243,4729.747620260986
1.483967320261438,828.5776821052261,827.9073717762648,0.16398404816376264,0.2858089537477691,0.2081910462522309,0.3547192630136217,2095.945093552314,4746.299291393128
1.4975816993464053,829.643405088133,828.9831987130564,0.16634112620841085,0.28666174799921595,0.20733825200078404,0.35471926301362283,2094.4494265153544,4762.78404641774
1.5066579520697168,830.3365374095331,829.6860301830347,0.16784076691163083,0.2872043201782939,0.20679567982170613,0.3547192630136236,2093.4978402188453,4773.736651186195
1.5157342047930282,831.012096096767,830.373672060092,0.1692705770641315,0.2877216275629523,0.20627837243704775,0.35471926301362444,2092.5905643995056,4784.659329855066
1.52481045751634,831.6675743278763,831.0433636914212,0.17062294257372956,0.28821091536360793,0.20578908463639203,0.3547192630136252,2091.732430525144,4795.551895381875
1.5338867102396516,832.3013598214746,831.6930177618182,0.17189394633591454,0.28867076636617406,0.2053292336338259,0.3547192630136261,2090.925924166448,4806.414119840932
1.542962962962963,832.9128321795826,832.3213941318045,0.1730834624854132,0.2891011350324124,0.20489886496758758,0.35471926301362694,2090.171125190327,4817.245755176209
1.5520392156862746,833.5022845342811,832.9281261982854,0.17419457451737175,0.2895031369753342,0.20449686302466583,0.35471926301362783,2089.4660769869624,4828.046553677137
1.561115468409586,834.0707285460934,833.5136217981011,0.17523262720860422,0.28987870594293413,0.2041212940570659,0.35471926301362877,2088.8073880664033,4838.81628507349
1.5701917211328975,834.6196590079591,834.078890460745,0.17620424214725447,0.2902302376353959,0.20376976236460412,0.3547192630136297,2088.190856747189,4849.554748707857
1.579267973856209,835.150836119729,834.6253499404143,0.17711650773990065,0.2905602966484891,0.20343970335151093,0.35471926301363066,2087.6119851315584,4860.261780712996
1.5883442265795207,835.6661142322259,835.1546492651145,0.1779764156469098,0.2908714125750638,0.2031285874249362,0.35471926301363166,2087.0663367113652,4870.937257017865
1.5974204793028324,836.1673226782005,835.6685268012209,0.17879052433568438,0.29116595827812813,0.20283404172187186,0.35471926301363266,2086.5497498579653,4881.581093320008
1.6064967320261438,836.6561918372687,836.168707595405,0.1795647936427931,0.2914460900351871,0.20255390996481287,0.35471926301363366,2086.0584427996346,4892.193243102131
1.6155729847494555,837.1343134229915,836.6568361251135,0.18030453194797147,0.2917137284257198,0.2022862715742802,0.3547192630136347,2085.5890471419284,4902.773694549459
1.6246492374727668,837.6031243336608,837.1344372650545,0.18101440961067045,0.2919705631925418,0.20202943680745822,0.3547192630136358,2085.1385993416175,4913.322466977107
1.6337254901960785,838.0639054978766,837.6028978626122,0.18169850676668733,0.29221807053469584,0.20178192946530418,0.3547192630136369,2084.7045103776754,4923.839607164778
1.6428017429193902,838.5177894934668,838.0634622986729,0.1823603755457072,0.2924575356178482,0.2015424643821518,0.35471926301363804,2084.2845262715823,4934.325185836763
1.6518779956427014,838.9657727230743,838.5172368523197,0.18300310522152213,0.29269007614573267,0.20130992385426735,0.35471926301363915,2083.87668674672,4944.779294414948
1.6609542483660131,839.4087294444854,838.9651991017366,0.18362938424351952,0.2929166648032324,0.20108333519676755,0.3547192630136403,2083.4792858667333,4955.202042100665
1.6700305010893246,839.8474260195014,839.4082097781184,0.18424155636957862,0.2931381495653439,0.2008618504346561,0.35471926301364154,2083.090836416801,4965.593553297153
1.6791067538126363,840.2825344583372,839.8470253967889,0.18484166997509555,0.293355271537253,0.200644728462747,0.35471926301364276,2082.710038614946,4975.953965359176
1.688183006535948,840.7146447949507,840.2823106439272,0.18543152059805082,0.29356868034720246,0.20043131965279756,0.354719263013644,2082.3357531153683,4986.28342664321
1.7017973856209152,841.3583073396686,840.9298781211232,0.1863004560352538,0.2938830624472793,0.20011693755272067,0.35471926301364587,2081.7843763403725,5001.719932976178
1.7154117647058824,841.9978798954454,841.5724887585142,0.18715438222728173,0.2941920141807067,0.19980798581929332,0.35471926301364787,2081.242523574694,5017.087720745466
1.7244880174291939,842.422616376506,841.9988442748215,0.18771724009197135,0.29439565697160885,0.19960434302839117,0.3547192630136492,2080.8853661370686,5027.295028403807
1.7335642701525054,842.8464151690591,842.4239808793527,0.188276113771005,0.2945978582783685,0.19940214172163157,0.3547192630136506,2080.5307368359927,5037.472240855075
1.742640522875817,843.269561521232,842.8482157613882,0.18883187682600125,0.29479893415684466,0.19920106584315533,0.354719263013652,2080.178081359181,5047.619544366806
1.7517167755991288,843.6923108583198,843.2718320319672,0.1893853128369962,0.2949991681074298,0.19900083189257017,0.3547192630136534,2079.8269024915185,5057.737128391029
1.7607930283224402,844.1148926135239,843.6950831692723,0.18993712675825666,0.2951988151835989,0.19880118481640108,0.35471926301365486,2079.4767529093106,5067.825184978033
1.7698692810457517,844.5375135009413,844.1181968204544,0.19048795460847073,0.29539810549783485,0.19860189450216517,0.35471926301365636,2079.1272290314423,5077.883908269208
1.7789455337690632,844.9603603175552,844.5413780549312,0.1910383717693522,0.29559724722407515,0.1984027527759248,0.35471926301365786,2078.7779657535557,5087.9134940573995
1.7880217864923749,845.3836023495268,844.9648121531847,0.19158890012580498,0.29579642918103427,0.1982035708189657,0.3547192630136594,2078.4286319173143,5097.914139405032
1.7970980392156863,845.8073934587986,845.388667011108,0.19214001429546354,0.29599582308605993,0.19800417691394007,0.35471926301366097,2078.078926357487,5107.886042311906
1.8061742919389978,846.2318740174588,845.813095292291,0.19269214761152967,0.2961955857197323,0.19780441428026768,0.3547192630136626,2077.7285741055866,5117.829401426739
1.8152505446623095,846.6571737094789,846.2382369854472,0.1932457023020139,0.2963958626087284,0.19760413739127158,0.35471926301366424,2077.377319930702,5127.744415804947
1.824326797385621,847.0834235108591,846.6642275495507,0.19380110053669344,0.29659680649468523,0.19740319350531477,0.3547192630136659,2077.0248959480164,5137.631284778378
1.8334030501089327,847.5108448964792,847.0912541057572,0.1943591763690202,0.2967987191393501,0.19720128086064995,0.3547192630136676,2076.6707729148693,5147.490208524696
1.842479302832244,847.9403381666934,847.5199318973572,0.19492374226270726,0.2970029798976177,0.19699702010238232,0.35471926301366935,2076.312531659644,5157.3213937587025
1.8470174291938997,848.1566619886171,847.7354417303321,0.19521183492497154,0.2971072122402077,0.19689278775979227,0.35471926301367024,2076.129724518609,5162.22665668109
1.8492864923747276,848.265167051616,847.843504359319,0.1953569746245124,0.2971597239937771,0.19684027600622292,0.3547192630136707,2076.037627158977,5164.676719948342
1.8504210239651417,848.3191782897707,847.8974417020517,0.19542828250976407,0.29718552328997055,0.19681447671002947,0.3547192630136709,2075.992379249733,5165.901110759054
1.8515555555555556,848.3724689488083,847.9510124664063,0.19549615473507978,0.2972100795594217,0.19678992044057833,0.3547192630136711,2075.9493114139605,5167.1250736880065
1.852406454248366,848.411494357579,847.9906874520499,0.19554264844513566,0.297226901051079,0.196773098948921,0.3547192630136713,2075.919809162342,5168.042763828558
1.8532573529411764,848.449403853367,848.0297444521191,0.19558398981178188,0.2972418584174261,0.1967581415825739,0.35471926301367146,2075.8935762934325,5168.9602104900005
1.8549591503267975,848.5221549176346,848.1060266496568,0.19565288064135652,0.2972667832193737,0.19673321678062627,0.3547192630136718,2075.8498621096032,5170.794366297638
1.8566609477124185,848.5926243385956,848.1806643089042,0.19571228885844258,0.2972882771983847,0.19671172280161528,0.3547192630136721,2075.8121650497956,5172.627530763132
1.8583627450980393,848.6622390964254,848.2543504582952,0.19576906012184003,0.2973088171237308,0.1966911828762692,0.35471926301367246,2075.776141250116,5174.459699984719
1.865169934640523,848.9378514732892,848.5431483800437,0.1959948633325824,0.29739051305251585,0.19660948694748415,0.35471926301367385,2075.632859435619,5181.778419555577
1.8787843137254903,849.4823877915438,849.1027400132516,0.19645362728099688,0.29755649451369875,0.19644350548630124,0.3547192630136766,2075.341754049038,5196.3681853291755
1.8923986928104577,850.0235994358642,849.6505545961022,0.19692196097451806,0.2977259383225257,0.19627406167747433,0.3547192630136795,2075.044576249055,5210.894764347312
1.9060130718954251,850.5651723611267,850.1945843850998,0.19740005842943154,0.29789891467436985,0.19610108532563017,0.3547192630136824,2074.7412029240218,5225.358720447821
1.9196274509803923,851.1089909622034,850.7388081408875,0.19788830824788659,0.2980755641660518,0.1959244358339482,0.35471926301368545,2074.4313874892196,5239.760681789155
1.9332418300653595,851.6560478950577,851.2852398228473,0.19838713304844888,0.29825603970158093,0.19574396029841906,0.35471926301368856,2074.1148617750573,5254.101304329852
1.9468562091503268,852.2068997519676,851.834933817717,0.19889696782510147,0.29844049866241057,0.19555950133758945,0.3547192630136917,2073.791349759209,5268.381254054152
1.9604705882352942,852.7618905253593,852.3884765638583,0.19941825315943926,0.29862910045159996,0.19537089954840006,0.354719263013695,2073.460571873772,5282.601198411631
1.9740849673202616,853.3212608176767,852.9462266753566,0.19995143231477738,0.29882200544245874,0.19517799455754123,0.3547192630136983,2073.1222468491746,5296.761802240593
1.9876993464052288,853.8852011634539,853.5084321159807,0.2004969500082437,0.2990193745342881,0.1949806254657119,0.35471926301370177,2072.7760924933405,5310.863725868154
2.0149281045751635,855.0274466171666,854.6469609618823,0.20162678501418976,0.2994281504763178,0.1945718495236822,0.35471926301370893,2072.0591637605676,5338.8941467161185
2.042156862745098,856.1898577119769,855.8053861586253,0.20281133729248743,0.2998567232067574,0.19414327679324261,0.3547192630137165,2071.307514573461,5366.697632026775
2.0693856209150323,857.3736202598828,856.9849150630857,0.2040542093628042,0.30030639612244175,0.19369360387755824,0.3547192630137244,2070.5188589788995,5394.279261426632
2.096614379084967,858.5799237716561,858.1867418287846,0.20535903754978738,0.3007784848508966,0.1932215151491034,0.3547192630137328,2069.6908895730508,5421.644025959227
2.123843137254902,859.8099758593515,859.4120740523587,0.2067295042032322,0.3012743216716126,0.19272567832838736,0.3547192630137416,2068.821269747155,5448.796832210056
2.151071895424837,861.065009164078,860.6621425430159,0.20816935113619855,0.30179526037797605,0.19220473962202395,0.354719263013751,2067.907625160462,5475.742506708521
2.1783006535947713,862.346286815927,861.938207403618,0.20968239416568057,0.30234268153810356,0.19165731846189646,0.3547192630137609,2066.9475345135543,5502.485800405096
2.205529411764706,863.6551078347985,863.2415635357712,0.21127253865546997,0.3029179981182729,0.19108200188172705,0.3547192630137713,2065.9385196857334,5529.031393191217
2.2327581699346406,864.9928127709995,864.5735462737047,0.21294379589436582,0.30352266140858325,0.19047733859141677,0.3547192630137824,2064.878035342344,5555.383898466978
2.246372549019608,865.672928434888,865.2507024121047,0.21381112845935607,0.3038364635871675,0.19016353641283254,0.35471926301378814,2064.327675658462,5568.489167933585
2.2599869281045755,866.3607896098828,865.9355372703387,0.2147003000861979,0.3041581671699695,0.1898418328300305,0.3547192630137941,2063.7634581538755,5581.547867770959
2.2736013071895425,867.0565782096179,866.6282317946302,0.2156118496013537,0.30448796710518405,0.18951203289481594,0.3547192630138002,2063.185040920101,5594.560558024794
2.28721568627451,867.7604798857508,867.3289705991505,0.2165463256885794,0.304826061907389,0.18917393809261104,0.3547192630138065,2062.592075793781,5607.527795465074
2.3144444444444443,869.1933849537187,868.7553390387693,0.21848630485367507,0.30552794917991594,0.18847205082008406,0.3547192630138196,2061.3610758715636,5633.328123508253
2.341673202614379,870.661072350186,870.2162004578273,0.22052484474704,0.3062654958667231,0.1877345041332769,0.35471926301383355,2060.067534943228,5658.953246310785
2.3689019607843136,872.1651707853255,871.7131775717552,0.22266669420901505,0.3070404201051256,0.18695957989487438,0.3547192630138484,2058.7084396660566,5684.4075156595345
2.3961307189542485,873.7073538235595,873.247931518516,0.224916714332857,0.3078544806457065,0.18614551935429352,0.3547192630138641,2057.280705468045,5709.695243500674
2.423359477124183,875.2894993053095,874.8223122711702,0.22728041950702924,0.3087096726022008,0.18529032739779921,0.3547192630138808,2055.7808332333825,5734.820710806909
2.4505882352941177,876.9135027883806,876.4382120292481,0.22976325147829352,0.3096079648064708,0.1843920351935292,0.35471926301389856,2054.2053699405305,5759.788172541761
2.4914313725490196,879.4323724793524,878.9442619970623,0.2337234203897551,0.31104075965603356,0.18295924034396646,0.35471926301392737,2051.6924730446835,5796.952358508519
2.532274509803922,882.0570897770664,881.555315800834,0.2379849662708122,0.31258259312982284,0.18141740687017718,0.3547192630139591,2048.9883395454726,5833.784769168125
2.5731176470588237,884.7954044112183,884.2790666592477,0.24256981432337338,0.3142413977976536,0.17975860220234638,0.35471926301399415,2046.0790569626342,5870.29957665406
2.6139607843137256,887.6556983787267,887.1238369559817,0.24750146865411296,0.31602567747937266,0.17797432252062736,0.3547192630140329,2042.9497109331658,5906.510948941887
2.64118954248366,889.6347739389067,889.0919993959254,0.25099426849431755,0.317289377521839,0.17671062247816097,0.35471926301406104,2040.7333797431343,5930.490301285539
2.668418300653595,891.6749410636673,891.1207799272753,0.2546602460546591,0.31861573351434586,0.17538426648565417,0.3547192630140912,2038.4071598677735,5954.345333343008
2.6956470588235293,893.7792170984895,893.2131762859149,0.25850764938257026,0.32000772961240365,0.17399227038759635,0.35471926301412354,2035.9658175675,5978.080294591139
2.7092614379084967,894.856382332353,894.2842105435782,0.2605020639146235,0.32072931167955704,0.173270688320443,0.35471926301414064,2034.7002760720036,5989.9040840622165
2.7228758169934637,895.9507790423902,895.3723454959605,0.26254509575182944,0.3214684835581499,0.17253151644185014,0.35471926301415835,2033.403884812789,6001.699462300973
2.7501045751633986,898.1933647782652,897.6016347230484,0.26678318115970556,0.32300124960094045,0.17099875039905957,0.3547198424120028,2030.71463798926,6025.207146519261
2.7773333333333334,900.5277075378291,899.9137124452967,0.2712856572469987,0.3246094186713071,0.16939058132869286,0.35474067571312884,2027.8576239486115,6048.607973770157
2.804562091503268,902.9807137908119,902.3371741653015,0.27611148702697763,0.32629662902940476,0.1677033709705952,0.35479945756100695,2024.7954281319387,6071.9076067856395
2.8317908496732027,905.566327610236,904.8893442333798,0.28128671768857993,0.3280668385879538,0.16593316141204617,0.354901653953611,2021.5115224815522,6095.112361513913
2.8590196078431376,908.2973430922015,907.5834460564179,0.2868401993908309,0.3299242312202017,0.16407576877979826,0.35505351904702653,2017.9876003351153,6118.228936160027
2.872633986928105,909.7215836391753,908.9878895874289,0.2897685759599096,0.3308869799305762,0.16311302006942383,0.3551502612219265,2016.1294199001818,6129.756350877951
2.886248366013072,911.1873684656435,910.4329577051169,0.2928036318731784,0.3318731733668042,0.16212682663319583,0.3552621554122561,2014.203546849388,6141.2644039385805
2.8998627450980394,912.6965744002997,911.9205323548779,0.2959497860750393,0.332883373761549,0.16111662623845102,0.35539023816583876,2012.207177173127,6152.754043320867
2.913477124183007,914.251115720108,913.4525892631616,0.29921161895162784,0.33391813554634425,0.16008186445365577,0.3555356122414808,2010.1374044200943,6164.2262442805895
2.927091503267974,915.8528739328102,915.0311980295711,0.3025938181218791,0.3349779819591809,0.15902201804081914,0.3556994503885132,2007.9912540951768,6175.682009139615
2.9407058823529413,917.5035355012237,916.658516309222,0.3061010448143982,0.33606335282159305,0.15793664717840694,0.35588299922466426,2005.765768449058,6187.12236489013
2.9543202614379087,919.204220725171,918.3367727642068,0.3097376166312367,0.3371744858130343,0.1568255141869657,0.35608758318515804,2003.458207778196,6198.548355828019
2.9679346405228757,920.9546361532514,920.0682189516538,0.3135067644476804,0.33831114362495257,0.15568885637504745,0.3563146085139058,2001.0665219537561,6209.961024882578
2.9815490196078427,922.7511618544797,921.8549516377407,0.31740892208671284,0.33947199135972206,0.15452800864027796,0.3565655670663173,1998.5904356964627,6221.361369350476
2.99516339869281,924.58274937261,923.6980919356841,0.3214379962582929,0.3406532454443649,0.1533467545556351,0.35684203785420565,1996.0338154599879,6232.750240388245
3.0087777777777776,926.4233963833035,925.5940396381419,0.3255744228348698,0.34184617513804216,0.1521538248619578,0.3571456732887177,1993.409075521725,6244.128130792985
3.022392156862745,928.2237433477696,927.5214306041669,0.32977732064698323,0.3430343492934263,0.15096565070657372,0.35747811365084253,1990.7421567357471,6255.494798284208
3.0360065359477124,929.9168460819179,929.4179258109817,0.33398997636519845,0.3441959062452322,0.14980409375476783,0.35784070164111026,1988.0690461401516,6266.848834167634
3.04962091503268,931.454264997654,931.1875183105666,0.3381738565126503,0.34531632516918703,0.14868367483081296,0.3582340166160372,1985.4141948774443,6278.187647477866
3.0632352941176473,932.8411208931387,932.7708037219811,0.34233930199062124,0.3463996477544151,0.1476003522455849,0.358657758239565,1982.7710412025797,6289.5082332509455
3.0768496732026143,934.1240529760163,934.1861346345504,0.3465296183191288,0.3474621629814232,0.14653783701857684,0.3591113055310694,1980.112105907156,6300.808174522371
3.0904640522875817,935.3562321111175,935.4933162149867,0.35078808286675406,0.34851982952472177,0.14548017047527823,0.359594357630692,1977.4099276460645,6312.086093254301
3.104078431372549,936.5783526664596,936.7506806789986,0.3551443917753334,0.34958313871414565,0.14441686128585432,0.36010716731573766,1974.6456629446177,6323.341543399165
3.1176928104575166,937.8166814476702,937.9999089415182,0.3596163816190483,0.35065780078122116,0.1433421992187788,0.3606504776530604,1971.807993732073,6334.574721613881
3.131307189542484,939.0870618060702,939.2671139411475,0.3642149152160944,0.35174665234372904,0.14225334765627098,0.3612253822082404,1968.890027084736,6345.786217203271
3.158535947712419,941.7587488320248,941.9115000240456,0.37381984388553513,0.353971673258657,0.140028326741343,0.3624754384013719,1962.7952882041757,6368.147572104068
3.1857647058823533,944.6380941502315,944.7501337226985,0.3840056396082485,0.3562627700402135,0.13773722995978652,0.36386957726929925,1956.3319642840117,6390.433515908378
3.2129934640522877,947.7529798093341,947.8160435314244,0.3948141890220225,0.3586213661898699,0.1353786338101301,0.3654215299567872,1949.4734764574257,6412.653066037072
3.2266078431372547,949.4066568829858,949.4424273576523,0.40046531199783186,0.35982620058522635,0.13417379941477367,0.36626128004132863,1945.88759673829,6423.7409747964375
3.240222222222222,951.1287829533779,951.1353688845463,0.4062883098061212,0.36104813171955863,0.1329518682804414,0.3671461179502948,1942.1926550718815,6434.816014605431
3.2538366013071895,952.9226990503251,952.8981605283271,0.4122887901092578,0.36228718901493007,0.13171281098506993,0.36807804312199105,1938.3850931560999,6445.879525680889
3.267450980392157,954.7918570894071,954.7341969443854,0.4184724462705732,0.3635433809977574,0.1304566190022426,0.3690591068971026,1934.4612983079096,6456.932896957502
3.2810653594771244,956.7398224101129,956.6469843213222,0.42484504009719515,0.3648166936232657,0.1291833063767343,0.3700914079505707,1930.417614413754,6467.97756764446
3.294679738562092,958.7702720193873,958.6401421777083,0.4314123808538934,0.366107088252917,0.12789291174708303,0.3711770867213435,1926.250355246168,6479.015028781364
3.3082941176470593,960.8869899607831,960.71740090836,0.4381803003509297,0.3674144993933844,0.12658550060661564,0.3723183186601494,1921.9558202716057,6490.046824731518
3.3219084967320263,963.0938602994162,962.8825964088704,0.44515462374699455,0.3687388322295608,0.1252611677704392,0.3735173061329494,1917.5303131772284,6501.074554568429
3.3355228758169932,965.3948577844855,965.1396622181232,0.4523411356457478,0.3700799599560719,0.12392004004392808,0.37477626882310233,1912.9701633841025,6512.099873316804
3.3491372549019607,967.7940360524588,967.4926192091955,0.45974554104155885,0.3714377209021535,0.12256227909784652,0.3760974324766007,1908.2717508288006,6523.12449300911
3.362751633986928,970.2955131396745,969.9455626691356,0.4673734206668658,0.372811915442108,0.121188084557892,0.3774830158362234,1903.4315342974164,6534.150183516001
3.376366013071895,972.9034540269514,972.5026465178756,0.47523018030529623,0.37420230268364607,0.11979769731635394,0.378935215614608,1898.446083588562,6545.178773104855
3.3899803921568625,975.6220499167893,975.1680643727391,0.48332099366202197,0.3756085969277835,0.11839140307221653,0.38045618936476555,1893.3121157645758,6556.212148676081
3.40359477124183,978.4554939364251,977.9460271450326,0.491650738428373,0.3770304638961591,0.11696953610384095,0.3820480361208471,1888.0265357212647,6567.2522556219
3.4172091503267974,981.4079529644337,980.8407368503155,0.5002239252447986,0.378467516724578,0.115532483275422,0.38371277470329695,1882.5864812639504,6578.301097247468
3.430823529411765,984.4835352947274,983.8563563216395,0.5090446193582022,0.37991931172530125,0.11408068827469874,0.3854523196120734,1876.989372819248,6589.360733689321
3.4444379084967323,987.6862538809971,986.9969745356137,0.5181163548897165,0.38138534392517165,0.11261465607482833,0.3872684544704797,1871.2329678358367,6600.4332802617955
3.4580522875816997,991.0199849486269,990.2665672960827,0.5274420417798431,0.3828650423921656,0.1111349576078344,0.3891628030312287,1865.3154198317561,6611.520905158131
3.4716666666666667,994.4884218218515,993.6689530714733,0.537023865661489,0.38435776536945526,0.10964223463054473,0.39113679781630056,1859.235341929257,6622.625826430017
3.485281045751634,998.0950238931199,997.2077438514983,0.5468631811285586,0.3858627952436083,0.10813720475639171,0.3931916465331648,1852.9918745804525,6633.750308167408
3.4988954248366015,1001.8429607606191,1000.8862909786769,0.5569603991175631,0.3873793333821587,0.10662066661784134,0.3953282964917124,1846.5847570285155,6644.896655799986
3.512509803921569,1005.7350516793738,1004.7076260213245,0.5673148693993801,0.3889064948854392,0.10509350511456078,0.3975473973377722,1840.0144018716903,6656.067210442982
3.5261241830065364,1009.7737006109938,1008.6743968877527,0.5779247594825562,0.3904433033081983,0.10355669669180168,0.39984926251853287,1833.2819719043403,6667.264342213494
3.539738562091504,1013.9608273156218,1012.788799535842,0.5887869315504598,0.3919886854180126,0.10201131458198741,0.4022338299998147,1826.3894582055952,6678.490442449356
3.5533529411764713,1018.297795104131,1017.0525058060084,0.5998968193812739,0.3935414660696543,0.10045853393034575,0.4047006228611765,1819.3397582388939,6689.747914771272
3.5669673202614383,1022.7853360548407,1021.4665880954371,0.6112483075185077,0.39510036328711046,0.09889963671288952,0.40724871049761263,1812.1367525234705,6701.039164940609
3.5805816993464052,1027.4234746910115,1026.0314417921484,0.6228336152540828,0.3966639836575328,0.09733601634246716,0.40987667125051647,1804.7853782520592,6712.366589480124
3.5941960784313727,1032.2114513056697,1030.7467065920698,0.6346431882377437,0.3982308181535918,0.0957691818464082,0.41258255736945276,1797.29169806937,6723.732563043033
3.60781045751634,1037.1476463000588,1035.6111880222577,0.6466656007161746,0.3997992385120237,0.09420076148797632,0.4153638632635821,1789.6629621055565,6735.13942453718
3.621424836601307,1042.2295070613588,1040.6227806787244,0.6588874715135535,0.4013674943060214,0.09263250569397857,0.4182174980309128,1781.9076612901567,6746.589462035383
3.6350392156862745,1047.453479033989,1045.7783948470967,0.6712933968747836,0.4029337108569298,0.09106628914307019,0.42113976324918934,1774.0355699659408,6758.08489652999
3.648653594771242,1052.8149427267556,1051.0738882972948,0.6838659031891162,0.40449588813583487,0.08950411186416514,0.42412633696964125,1766.0577758877976,6769.627864618635
3.662267973856209,1058.3081584362587,1056.5040051188537,0.6965854223860416,0.4060519008074743,0.08794809919252572,0.4271722647712706,1757.9866958350972,6781.220400238543
3.6758823529411764,1063.926220448096,1062.0623234819557,0.7094302924441976,0.40759949956687064,0.08640050043312937,0.4302719586083425,1749.836075288766,6792.864415597497
3.689496732026144,1069.6610223967866,1067.741214163585,0.7223767849820667,0.4091363139127262,0.0848636860872738,0.43341920401934425,1741.620970923808,6804.561681479822
3.7031111111111112,1075.5032353213878,1073.5318115642133,0.7353991613185319,0.41065985649056025,0.08334014350943976,0.43660717606663874,1733.3577150364779,6816.313807134474
3.7167254901960787,1081.4422997483207,1079.423998757487,0.7484697577215047,0.41216752912261556,0.0818324708773844,0.4398284641496348,1725.0638614503744,6828.122219978247
3.730339869281046,1087.4664328712481,1085.4064078667654,0.7615590998298547,0.4136566306207087,0.08034336937929136,0.44307510558995705,1716.7581129108216,6839.988145369469
3.7439542483660135,1093.5626515883625,1091.466436755022,0.7746360454683953,0.41512436645264333,0.07887563354735666,0.44633862763570087,1708.46023046264,6851.912586725097
3.7575686274509805,1099.710834366732,1097.5847627294886,0.7876539632528498,0.4165663152675188,0.0774336847324812,0.4496065803353769,1700.1998037176415,6863.909281406691
3.771183006535948,1105.8893389818393,1103.740085764573,0.8005653480763983,0.4179781130607942,0.07602188693920581,0.45286614027705424,1692.0069767020361,6875.991859345665
3.7847973856209154,1112.0817069853313,1109.9158605535654,0.8133363263869732,0.41935699968270035,0.07464300031729963,0.45610781211028834,1683.9032436363345,6888.160587804008
3.798411764705883,1118.2708922919492,1116.095081349467,0.8259326248942024,0.4207002167108081,0.07329978328919189,0.4593219541313973,1675.910352392133,6900.415425552593
3.8120261437908503,1124.439287085525,1122.260192087934,0.8383198112944393,0.42200502410913177,0.07199497589086826,0.4624988487190226,1668.0501517417656,6912.756026408568
3.8256405228758172,1130.568815351449,1128.3931395955763,0.850463548106893,0.42326871944356464,0.07073128055643538,0.46562877495697297,1660.3444302884004,6925.181729396942
3.8392549019607847,1136.6410516619476,1134.475479991948,0.8623298421349541,0.4244886577455356,0.06951134225446438,0.46870207902603767,1652.814758172137,6937.69155088413
3.852869281045752,1142.6373509619477,1140.4885067276687,0.8738852862277336,0.4256622718252124,0.06833772817478764,0.4717092413604578,1645.4823336619504,6950.284179019797
3.866483660130719,1148.5389827316562,1146.4133873795058,0.8850972895988631,0.42678709280889243,0.06721290719110759,0.47464093944021046,1638.3678370085386,6962.957970652274
3.8800980392156865,1154.327265582743,1152.231302956536,0.895934293023658,0.42786077066886324,0.06613922933113675,0.47748810511979506,1631.4912938925022,6975.710950792189
3.893712418300654,1159.98369926959,1157.9235858133331,0.9063659654756874,0.4288810945218116,0.06511890547818837,0.48024197547321895,1624.871950650013,6988.540814635552
3.907326797385621,1165.4900913986253,1163.471853089593,0.9163633790500584,0.42984601249286436,0.06415398750713565,0.482894136217455,1618.528163276493,7001.444932102695
3.9209411764705884,1170.828676188844,1168.8581328807204,0.925899159282308,0.4307536509779087,0.06324634902209131,0.48543655683571335,1612.4773020428347,7014.4203547965835
3.9300174291939,1174.2859722428238,1172.3503533729424,0.931987120637281,0.431326084666522,0.06267391533347799,0.4870667563854632,1608.614229650475,7023.108654372314
3.9390936819172118,1177.6560625050984,1175.7577962441374,0.9378512735882188,0.43187186660305243,0.06212813339694758,0.48864263348246634,1604.8931732822641,7031.826164288064
3.948169934640523,1180.9341288273026,1179.0755814075314,0.9434847967808409,0.43239059690972703,0.061609403090273,0.49016212002863413,1601.3184613798373,7040.571788146686
3.9572461873638343,1184.1154975146906,1182.2989760563855,0.9488812333636978,0.43288192258961855,0.061118077410381465,0.49162323292268495,1597.8941910921608,7049.344374218673
3.9663224400871457,1187.1956465501905,1185.423403374594,0.9540344933630966,0.4333455397057173,0.060654460294282654,0.49302407274032334,1594.6242267685423,7058.142717394033
3.9753986928104577,1190.1702106928922,1188.444449294514,0.95893885250747,0.43378119555452505,0.060218804445474915,0.4943628211353013,1591.512200704617,7066.965561229227
3.984474945533769,1193.0349841431264,1191.3578670538993,0.9635889471610414,0.434188690874746,0.059811309125254,0.4956377367977199,1588.5615163571551,7075.811600061487
3.9935511982570806,1195.7859203947005,1194.1595792562118,0.967979764921103,0.43456788214903025,0.05943211785096973,0.4968471497503673,1585.775354310492,7084.679481158698
4.002627450980392,1198.419128791963,1196.8456770703444,0.9721066302802428,0.43491868408085027,0.059081315919149745,0.49798945368441583,1583.1566813744596,7093.567806867893
4.011703703703703,1200.9308671603,1199.4124161077348,0.9759651845325976,0.4352410723629801,0.058758927637019925,0.4990630959209952,1580.7082633347297,7102.475136718976
4.020779956427016,1203.3175296601464,1201.856208373276,0.9795513587776015,0.43553508690447584,0.05846491309552413,0.5000665644169295,1578.4326820830927,7111.399989431678
4.029856209150327,1205.5756286896103,1204.173609480501,0.9828613383917466,0.4358008357593225,0.058199164240677545,0.5009983709819223,1576.3323581616485,7120.340844762232
4.038932461873638,1207.7017691691083,1206.361300019238,0.9858915166112899,0.4360385001192588,0.05796149988074116,0.5018570294918869,1574.4095802165675,7129.2961451101155
4.04800871459695,1209.6926127824559,1208.416059515791,0.988638433753026,0.4362483409273075,0.05775165907269248,0.5026410272854047,1572.6665435651157,7138.264296782017
4.057084967320261,1211.5448285518382,1210.3347307560944,0.9910986968582809,0.4364307079980123,0.0575692920019877,0.5033487869705683,1571.105401184984,7147.243670776118
4.066161220043573,1213.2550241945887,1212.1141712416543,0.9932688717867613,0.4365860531193045,0.05741394688069551,0.5039786142825124,1569.728332185366,7156.232602898109
4.075237472766884,1214.8196495469076,1213.7511870871206,0.9951453354171943,0.43671494973045955,0.05728505026954044,0.5045286249314364,1568.5376355919864,7165.229392940063
4.07977559912854,1215.5461878922845,1214.5152518917848,0.9959721925254076,0.4367696996003993,0.05723030039960068,0.5047730331611846,1568.012959320092,7169.730193020403
4.084313725490196,1216.2348582090533,1215.2424424805686,0.9967240693633467,0.43681812405921133,0.05718187594078868,0.5049966388316451,1567.5358612431266,7174.232302516862
4.088851851851851,1216.8851003694178,1215.9322996529954,0.9974003539104028,0.43686034632242327,0.0571396536775767,0.5051990972973476,1567.106729714396,7178.735497501479
4.093389978213508,1217.4963056502102,1216.5843379707214,0.9980003669019362,0.43689650783433215,0.05710349216566785,0.505380021355064,1566.7259957564256,7183.239551004966
4.097928104575163,1218.0678049468345,1217.1980400935922,0.9985233468838316,0.43692677297726235,0.05707322702273765,0.505538971127268,1566.3941425444852,7187.744232717176
4.102466230936819,1218.5988556208347,1217.7728515903025,0.998968436084014,0.436951336054008,0.057048663945992006,0.505675441967986,1566.111714371718,7192.249308615542
4.105491648511256,1218.9300126703588,1218.1341615780707,0.9992214193744807,0.43696465757171343,0.05703534242828657,0.5057536501712893,1565.9511856317758,7195.252794105582
4.107004357298475,1219.0886294318932,1218.308178539473,0.9993346745972119,0.4369704321705304,0.05702956782946965,0.5057888514761386,1565.8793203391576,7196.75454051873
4.108517066085693,1219.2425586603451,1218.477738813512,0.9994390533985231,0.43697563127895667,0.057024368721043356,0.505821416769249,1565.8130875163486,7198.256277326716
4.1100297748729115,1219.3917645553408,1218.6428187602335,0.9995345168330835,0.43698026767344883,0.05701973232655119,0.5058513191836865,1565.75251187583,7199.757995413054
4.111542483660131,1219.5362109047242,1218.8033949462774,0.9996210273156693,0.43698435540599667,0.057015644594003316,0.5058785310690731,1565.697617267037,7201.259685597011
4.11305519244735,1219.675861719593,1218.959444574921,0.9996985503664656,0.4369879100511698,0.05701208994883021,0.5059030243759922,1565.6484255688904,7202.761338633479
4.114567901234568,1219.8106823010864,1219.110946145306,0.9997670574091947,0.4369909490279859,0.05700905097201409,0.5059247713464873,1565.6049549142626,7204.2629452144565
4.116080610021786,1219.9406410324773,1219.257880472075,0.9998265303232223,0.4369934920286326,0.057006507971367436,0.5059437457322992,1565.567216801473,7205.764495973263
4.117593318809005,1220.0657124288657,1219.4002322884419,0.9998769690207102,0.43699556160467523,0.05700443839532476,0.5059599249500824,1565.5352112862583,7207.2659814933095
4.119106027596224,1220.185882457533,1219.537992828333,0.9999184044706636,0.43699718399432824,0.05700281600567175,0.5059732939662533,1565.508918717458,7208.767392324777
4.120618736383443,1220.301158176416,1219.6711641275826,0.9999509220767857,0.4369983903361887,0.0570016096638113,0.505983852541399,1565.488284902762,7210.268719015322
4.121627208908255,1220.375310009161,1219.7574043510213,0.9999677307517159,0.436998981784556,0.05700101821544405,0.5059893424959735,1565.477619078147,7211.269552084863
4.122635681433067,1220.4473361080948,1219.8416264051366,0.999980749501734,0.43699941845265045,0.057000581547349535,0.5059936160304969,1565.469358123314,7212.270340827104
4.12364415395788,1220.5172902806153,1219.923852556198,0.9999901310569572,0.4369997163414029,0.05700028365859714,0.5059967124020162,1565.4634051244582,7213.271082545115
4.125156862745099,1220.618559796165,1220.0435352987474,0.9999979744605259,0.4369999468902134,0.05700005310978665,0.5059993196079802,1565.458428148748,7214.77210129935
4.125913217138708,1220.6677166632421,1220.1017916294754,0.9999995264065568,0.4369999883177206,0.057000011682279444,0.5059998396767953,1565.4574433724792,7215.522566270869
4.126291394335512,1220.6919847536196,1220.1305427546215,0.9999998580803624,0.4369999966641388,0.05700000333586123,0.5059999513304405,1565.457232911235,7215.897787264704
4.126669571532317,1220.716082391864,1220.1590534283243,0.9999999840722188,0.43699999970856657,0.05700000029143345,0.5059999938700489,1565.4571529640025,7216.273000474831
4.126764115831518,1220.7220844221342,1220.1661447349356,0.9999999939680592,0.43699999993967403,0.05700000006032597,0.5059999972192708,1565.4571466846678,7216.366802552244
4.1267759338689185,1220.722834127383,1220.1670301477645,0.9999999947977031,0.4369999999588939,0.0570000000411061,0.5059999975002173,1565.4571461582232,7216.37852777734
4.126787751906319,1220.723583715551,1220.167915339558,0.9999999955487413,0.43699999997626265,0.05700000002373733,0.5059999977545753,1565.4571456816573,7216.390252994748
4.126799569943719,1220.724333188123,1220.1688003107145,0.9999999962248477,0.4369999999918709,0.05700000000812912,0.5059999979835833,1565.4571452526386,7216.401978204463
4.126811387981119,1220.7250825465997,1220.169685061635,0.999999996829736,0.43700000000580963,0.05699999999419036,0.5059999981884941,1565.4571448688112,7216.413703406484
4.126817296999819,1220.725457183526,1220.1701273546328,0.9999999971066447,0.4370000000121816,0.056999999987818406,0.505999998282308,1565.4571446931006,7216.41956600461
4.1268232060185195,1220.7258317924989,1220.1705695927237,0.9999999973671598,0.4370000000181706,0.05699999998182941,0.5059999983705737,1565.4571445277927,7216.425428600811
4.12682911503722,1220.7262063737107,1220.171011775959,0.9999999976117571,0.4370000000237882,0.05699999997621182,0.5059999984534519,1565.4571443725854,7216.431291195087
4.12683502405592,1220.7265809273547,1220.1714539043894,0.9999999978409144,0.43700000002904593,0.05699999997095407,0.5059999985311036,1565.4571442271751,7216.4371537874395
4.12684093307462,1220.7269554536247,1220.1718959780667,0.9999999980551123,0.43700000003395545,0.05699999996604455,0.5059999986036912,1565.4571440912573,7216.443016377868
4.12684684209332,1220.727329952716,1220.1723379970429,0.9999999982548333,0.43700000003852835,0.056999999961471634,0.5059999986713776,1565.4571439645258,7216.44887896637
4.12685275111202,1220.7277044248247,1220.1727799613693,0.9999999984405619,0.43700000004277634,0.056999999957223685,0.5059999987343264,1565.457143846673,7216.454741552948
4.12685866013072,1220.728078870147,1220.1732218710983,0.9999999986127844,0.43700000004671097,0.05699999995328903,0.5059999987927022,1565.4571437373904,7216.4606041376
4.1268704781681205,1220.7288276812214,1220.174105526973,0.9999999989186609,0.437000000053687,0.05699999994631299,0.5059999988963927,1565.4571435432988,7216.472329301129
4.126882296205521,1220.7295763875175,1220.174988965085,0.9999999991763654,0.43700000005954953,0.056999999940450456,0.5059999989837681,1565.4571433797742,7216.484054456954
4.126894114242921,1220.730324990608,1220.175872185853,0.9999999993897837,0.4370000000643908,0.05699999993560918,0.5059999990561418,1565.457143244351,7216.495779605074
4.126905932280321,1220.7310734920457,1220.1767551896926,0.9999999995627474,0.4370000000683015,0.05699999993169853,0.5059999991148096,1565.4571431345983,7216.5075047454875
4.1269177503177215,1220.731821893334,1220.1776379770138,0.9999999996989608,0.43700000007136885,0.05699999992863117,0.5059999991610246,1565.457143048165,7216.519229878194
4.126929568355122,1220.7325701958173,1220.1785205482024,0.9999999998017115,0.43700000007367057,0.05699999992632941,0.5059999991958981,1565.4571429829653,7216.530955003191
4.126941386392522,1220.7333184016409,1220.1794029037694,0.9999999998763622,0.43700000007533146,0.056999999924668504,0.5059999992212459,1565.4571429355963,7216.542680120476
4.126953204429921,1220.7340665140264,1220.180285044389,0.9999999999310603,0.43700000007653794,0.056999999923462046,0.5059999992398293,1565.4571429008881,7216.554405230048
4.126965022467321,1220.7348145335254,1220.1811669703307,0.9999999999670318,0.4370000000773194,0.05699999992268063,0.5059999992520625,1565.4571428780625,7216.5661303319075
4.126976840504721,1220.735562462778,1220.1820486821823,0.9999999999909135,0.4370000000778268,0.05699999992217321,0.5059999992601956,1565.4571428629085,7216.577855426052
4.126988658542121,1220.736310303734,1220.1829301804278,1.0000000000075497,0.43700000007817047,0.05699999992182953,0.5059999992658708,1565.457142852352,7216.589580512481
4.127000476579521,1220.7370580591628,1220.1838114656778,1.0000000000239058,0.4370000000785077,0.05699999992149229,0.5059999992714512,1565.4571428419736,7216.601305591192
4.127012294616922,1220.7378057291448,1220.184692538135,1.000000000039979,0.4370000000788385,0.05699999992116152,0.5059999992769357,1565.4571428317745,7216.613030662184
4.127024112654322,1220.7385533137608,1220.1855733980028,1.0000000000557665,0.43700000007916273,0.05699999992083729,0.5059999992823235,1565.4571428217566,7216.624755725457
4.127035930691722,1220.7393008130914,1220.1864540454828,1.0000000000712663,0.43700000007948037,0.05699999992051966,0.5059999992876136,1565.4571428119214,7216.636480781008
4.127047748729122,1220.740048227217,1220.1873344807782,1.0000000000864755,0.4370000000797913,0.05699999992020869,0.5059999992928054,1565.4571428022705,7216.648205828836
4.127059566766523,1220.7407955562176,1220.1882147040903,1.000000000101391,0.43700000008009554,0.05699999991990443,0.5059999992978976,1565.4571427928058,7216.659930868941
4.127071384803923,1220.7415428001734,1220.1890947156216,1.0000000001160103,0.437000000080393,0.05699999991960697,0.5059999993028894,1565.4571427835292,7216.671655901321
4.127083202841323,1220.7422899591647,1220.1899745155738,1.00000000013033,0.4370000000806836,0.056999999919316355,0.5059999993077797,1565.4571427744427,7216.683380925974
4.127095020878723,1220.743037033271,1220.1908541041482,1.0000000001443472,0.43700000008096734,0.05699999991903267,0.5059999993125675,1565.4571427655483,7216.6951059429
4.127106838916124,1220.7437840225725,1220.191733481546,1.0000000001580585,0.437000000081244,0.056999999918755984,0.5059999993172516,1565.4571427568478,7216.706830952097
4.127118656953524,1220.7445309271484,1220.1926126479686,1.0000000001714604,0.43700000008151363,0.05699999991848638,0.5059999993218308,1565.4571427483438,7216.718555953565
4.127130474990924,1220.7452777470785,1220.193491603617,1.0000000001845493,0.4370000000817761,0.05699999991822392,0.5059999993263039,1565.4571427400383,7216.7302809473
4.1271422930283235,1220.7460244824417,1220.1943703486916,1.0000000001973213,0.43700000008203127,0.056999999917968724,0.5059999993306696,1565.457142731934,7216.7420059333035
4.127154111065723,1220.7467711333172,1220.195248883393,1.0000000002097726,0.4370000000822792,0.05699999991772085,0.5059999993349267,1565.457142724033,7216.753730911571
4.127165929103123,1220.7475176997846,1220.1961272079218,1.0000000002218987,0.43700000008251955,0.05699999991748042,0.5059999993390735,1565.4571427163385,7216.765455882107
4.127177747140523,1220.7482641819224,1220.1970053224777,1.0000000002336955,0.43700000008275247,0.05699999991724751,0.5059999993431087,1565.457142708853,7216.777180844905
4.127189565177924,1220.7490105798092,1220.1978832272607,1.000000000245158,0.4370000000829778,0.05699999991702223,0.5059999993470305,1565.4571427015796,7216.788905799966
4.127201383215324,1220.7497568935235,1220.1987609224707,1.0000000002562812,0.4370000000831953,0.05699999991680471,0.5059999993508375,1565.4571426945213,7216.800630747289
4.127213201252724,1220.7505031231437,1220.1996384083068,1.0000000002670602,0.43700000008340495,0.05699999991659505,0.5059999993545277,1565.4571426876817,7216.812355686871
4.127225019290124,1220.7512492687476,1220.2005156849684,1.000000000277489,0.4370000000836066,0.05699999991639338,0.505999999358099,1565.4571426810642,7216.824080618712
4.1272368373275246,1220.7519953304134,1220.2013927526546,1.0000000002875615,0.4370000000838002,0.05699999991619985,0.5059999993615498,1565.4571426746727,7216.835805542812
4.127331381626726,1220.7579608088165,1220.2084017944594,1.0000000003482337,0.4370000000848947,0.05699999991510533,0.5059999993824066,1565.4571426361736,7216.92960465673
4.127425925925927,1220.7639209562137,1220.2153975752803,1.0000000003734926,0.4370000000851846,0.05699999991481539,0.5059999993912554,1565.4571426201458,7217.023403274431
4.127615014524329,1220.7758254438158,1220.2293497599778,1.0000000003800749,0.4370000000847706,0.05699999991522942,0.5059999993940508,1565.457142615969,7217.210999018696
4.127804103122731,1220.7877091421012,1220.243250108579,1.0000000003803364,0.43700000008421364,0.05699999991578637,0.5059999993947024,1565.457142615803,7217.398592770696
4.127993191721133,1220.7995723695024,1220.2570994072344,1.0000000003806695,0.43700000008365814,0.05699999991634186,0.5059999993953784,1565.4571426155917,7217.586184525598
4.128182280319535,1220.8114154372033,1220.2708984298238,1.0000000003810736,0.43700000008310413,0.05699999991689588,0.5059999993960786,1565.4571426153352,7217.7737742786485
4.12856045751634,1220.835042314758,1220.2983486839264,1.0000000003820948,0.43700000008200046,0.056999999917999554,0.5059999993975519,1565.4571426146872,7218.148947760552
4.128938634713144,1220.858592171317,1220.3256068308274,1.0000000003833975,0.43700000008090256,0.056999999919097454,0.5059999993991211,1565.4571426138605,7218.524113179855
4.129316811909948,1220.8820673314374,1220.3526786514003,1.0000000003849796,0.4370000000798104,0.056999999920189615,0.5059999994007857,1565.4571426128566,7218.899270501155
4.129694989106754,1220.9054700498464,1220.3795697528415,1.0000000003868388,0.43700000007872386,0.056999999921276114,0.5059999994025448,1565.457142611677,7219.27441969017
4.130262254901961,1220.9404430652746,1220.419579409023,1.0000000003901441,0.4370000000771047,0.05699999992289526,0.5059999994053599,1565.4571426095795,7219.837128153315
4.1308295206971675,1220.9752650982516,1220.459212317655,1.0000000003940612,0.43700000007549805,0.05699999992450192,0.5059999994083836,1565.457142607094,7220.399818136694
4.131396786492375,1221.0099429370653,1220.4984853600495,1.0000000003985818,0.43700000007390377,0.056999999926096244,0.5059999994116136,1565.4571426042255,7220.962489537731
4.131964052287582,1221.044483066459,1220.5374146625725,1.0000000004036986,0.4370000000723216,0.056999999927678416,0.5059999994150469,1565.4571426009788,7221.525142258691
4.13423311546841,1221.1813862895094,1220.6899923909566,1.0000000004304548,0.43700000006612183,0.056999999933878144,0.5059999994309272,1565.4571425840006,7223.775564545278
4.1387712418300655,1221.4502237931104,1220.982729398921,1.0000000005155103,0.43700000005437156,0.05699999994562843,0.5059999994734506,1565.4571425300294,7228.275488041475
4.147847494553377,1221.974732198705,1221.535213329585,1.0000000008387675,0.43700000003407113,0.056999999965928895,0.505999999610706,1565.4571423249088,7237.271554050548
4.1569237472766885,1222.4896228883379,1222.0634489094105,1.000000001290523,0.4370000000163253,0.0569999999836747,0.5059999997918976,1565.4571420382506,7246.262471878825
4.166,1223.0,1222.5801280505223,1.0000000018205848,0.437,0.057,0.506,1565.4571417019038,7255.248183762111
