z,T,t,fs,x,y,w,rhob,p
0.0,556.2444296739623,298.0,0.0,0.22647906108033386,0.26752093891966616,0.3547194901038652,2200.0,2040.0
0.002630050505050505,580.1052824677093,352.8941356021659,6.693622859045501e-07,0.22647930325657867,0.2675206967434213,0.3547194901038652,2199.9995752609425,2045.487367498652
0.00526010101010101,600.977791499528,400.466179881695,2.9964080523485894e-06,0.22648014518510834,0.26751985481489166,0.3547194901038652,2199.9980986506735,2051.315284483701
0.007890151515151515,619.305110833735,441.9102100301316,8.390840060155152e-06,0.22648209689842413,0.26751790310157586,0.3547194901038652,2199.9946756523746,2057.4427253534186
0.01052020202020202,635.4490477194311,478.17337313333815,1.8214970864050553e-05,0.22648565128318202,0.267514348716818,0.3547194901038652,2199.988441820345,2063.8331361009796
0.01578030303030303,662.3329660485425,538.0729854166319,5.5166481982618517e-05,0.22649902039343944,0.26750097960656055,0.3547194901038652,2199.964994502904,2077.2763735708213
0.02104040404040404,683.4866199662832,584.7869664028882,0.00011863927397048101,0.22652198494153894,0.2674780150584611,0.3547194901038652,2199.9247182961253,2091.4256020183448
0.02630050505050505,700.2438700264064,621.5316664907848,0.00020934486374567894,0.2265548023553323,0.2674451976446677,0.3547194901038652,2199.867161712031,2106.1074640276447
0.03156060606060606,713.588256804735,650.6225938396201,0.0003257095997319557,0.22659690328539936,0.2674030967146006,0.3547194901038652,2199.793323299987,2121.1849616226978
0.03945075757575757,728.7745683634714,683.5287101832848,0.0005426894190849355,0.2266754068983979,0.2673245931016021,0.3547194901038653,2199.655640305473,2144.3125763272233
0.047340909090909086,739.7144270754095,707.0763803538327,0.0008022444953490099,0.2267693143010292,0.2672306856989708,0.3547194901038653,2199.490941485794,2167.817526521524
0.0552310606060606,747.643741994495,724.032991128768,0.0010959008587949214,0.22687555959876823,0.2671244404012318,0.3547194901038653,2199.304603937915,2191.507321505181
0.06312121212121212,753.4227994772572,736.3036678942357,0.0014167130563402747,0.22699162991662733,0.2670083700833727,0.3547194901038653,2199.1010348494783,2215.247429711318
0.07101136363636364,757.6581524462781,745.2210963537674,0.0017592417890895714,0.22711555730838578,0.2668844426916142,0.3547194901038653,2198.883685688746,2238.944360712965
0.07890151515151515,760.7813385767073,751.7280942364894,0.0021193251907816045,0.22724583600480058,0.2667541639951994,0.3547194901038653,2198.6551973382266,2262.5337194995545
0.08679166666666667,763.1013431207373,756.4969988919867,0.002493819738296251,0.22738132867465266,0.26661867132534733,0.3547194901038653,2198.4175644980623,2285.971744651488
0.09468181818181819,764.8403977859856,760.00996918136,0.002880369181191398,0.2275211828231183,0.2664788171768817,0.35471949010386533,2198.1722823101404,2309.2292998506327
0.10257196969696969,766.158841019968,762.61415078695,0.003277215715982291,0.22766476247435008,0.2663352375256499,0.35471949010386533,2197.9204661761073,2332.2876001231816
0.1104621212121212,767.1726071094013,764.5601732261448,0.0036830519237216358,0.2278115946022787,0.2661884053977213,0.35471949010386533,2197.6629457093163,2355.135168635717
0.11835227272727272,767.9656469555558,766.0293278564714,0.004096907221901498,0.2279613280487466,0.26603867195125336,0.35471949010386533,2197.4003367859655,2377.765668521745
0.12624242424242424,768.5988103266495,767.1529180999584,0.004518061912302585,0.2281137024258954,0.2658862975741046,0.3547194901038654,2197.1330960854193,2400.1763580449237
0.13413257575757576,769.116229264969,768.0261212716779,0.004945982646531802,0.22826852476750373,0.26573147523249624,0.3547194901038654,2196.8615620400906,2422.366990365357
0.14202272727272727,769.549921893287,768.7179625694024,0.0053802742326154365,0.22842565209254298,0.26557434790745704,0.3547194901038654,2196.585985416224,2444.339030690938
0.1499128787878788,769.9231210031109,769.2785141216632,0.005820643778566329,0.22858497843226783,0.26541502156773217,0.35471949010386544,2196.3065520663376,2466.095100105971
0.1578030303030303,770.2526847733465,769.7441024926882,0.00626687408605931,0.2287464252040096,0.26525357479599043,0.35471949010386544,2196.0233998120775,2487.638581319335
0.17358333333333334,770.8264499808708,770.4885145231301,0.007176313917751351,0.22907546185269656,0.26492453814730343,0.3547194901038655,2195.446321262876,2530.1035323141978
0.18936363636363637,771.3340890268536,771.0866456890228,0.008107738715871466,0.22941245269408864,0.2645875473059114,0.3547194901038655,2194.855292310263,2571.767465843608
0.2051439393939394,771.8086210697913,771.609622567112,0.009060674762674208,0.22975722633641923,0.2642427736635808,0.35471949010386555,2194.2506135484505,2612.665089627313
0.22092424242424244,772.2673936822858,772.0948089768103,0.010034858240338708,0.23010968733001852,0.2638903126699815,0.3547194901038656,2193.632452381152,2652.830355419569
0.23670454545454545,772.7195119046011,772.5618108209567,0.011030142803183698,0.230469782726807,0.26353021727319303,0.35471949010386566,2193.000901670974,2692.2956367501624
0.2524848484848485,773.1697511815759,773.0209052824193,0.012046449416838884,0.23083748393203496,0.26316251606796504,0.3547194901038657,2192.3560115686123,2731.091426711275
0.2682651515151515,773.6206160250125,773.4774755964767,0.013083739102725096,0.23121277684319605,0.262787223156804,0.3547194901038658,2191.697806807645,2769.2462877649814
0.28404545454545455,774.0734217070251,773.9343413652633,0.014141998070583871,0.23159565647095473,0.2624043435290453,0.35471949010386583,2191.026296138583,2806.7869181022
0.3156060606060606,774.9873031859189,774.854169025018,0.016321449259801567,0.23238418506876507,0.2616158149312349,0.35471949010386594,2189.643340953973,2880.123665528757
0.3471666666666667,775.9139180883094,775.7856829426543,0.018584963469781737,0.23320312778927632,0.2607968722107237,0.35471949010386605,2188.207044179989,2951.282618211523
0.37872727272727275,776.8540513370534,776.730415448102,0.020932839022494563,0.2340525925658095,0.2599474074341905,0.3547194901038662,2186.717216518555,3020.4228266442587
0.4102878787878788,777.8080339933272,777.688904155343,0.023365482726526658,0.23493272658230063,0.25906727341769936,0.3547194901038664,2185.173599832188,3087.6849140138565
0.42606818181818185,778.2902880983473,778.1733970893689,0.024613745856314824,0.2353843499911201,0.25861565000887987,0.35471949010386644,2184.3815233793457,3120.651283359217
0.4418484848484849,778.7760835247739,778.661426305746,0.025883395877388193,0.23584371120819153,0.25815628879180846,0.35471949010386655,2183.5758760274025,3153.193935792519
0.4576287878787879,779.2654445261511,779.1530178396948,0.027174508770808004,0.23631083772357295,0.2576891622764271,0.3547194901038666,2182.7566095631178,3185.3264526784183
0.47340909090909095,779.7583956320578,779.6481974340282,0.028487165445633424,0.23678575881027916,0.25721424118972086,0.3547194901038667,2181.9236726462264,3217.061709535524
0.489189393939394,780.2549618635665,780.146991017914,0.029821451563315546,0.2372685054607473,0.2567314945392527,0.3547194901038668,2181.0770109208665,3248.411927009353
0.504969696969697,780.7551688405272,780.6494249505897,0.031177457377097876,0.2377591103287316,0.2562408896712684,0.3547194901038669,2180.2165671174866,3279.3887172038335
0.52075,781.2590428336229,781.1555261443469,0.03255527758430518,0.23825760767586138,0.2557423923241386,0.354719490103867,2179.342281146576,3310.003125874835
0.536530303030303,781.7666107884961,781.6653221257764,0.033955011189943936,0.23876403332229143,0.2552359666777086,0.3547194901038671,2178.454090185215,3340.265670927473
0.552310606060606,782.2779003359972,782.1788410656678,0.03537676138036949,0.23927842460099455,0.2547215753990054,0.3547194901038672,2177.5519287572392,3370.18637760511
0.5680909090909091,782.7929397957622,782.6961117931846,0.03682063540599057,0.23980082031532407,0.2541991796846759,0.35471949010386733,2176.6357288076674,3399.774810711139
0.5838712121212122,783.311758176822,783.2171638023267,0.03828674447213121,0.2403312606995273,0.2536687393004727,0.35471949010386744,2175.7054197719553,3429.0401041640334
0.5996515151515152,783.8343851771427,783.7420272547882,0.039775203637281126,0.24086978738193252,0.2531302126180675,0.35471949010386755,2174.7609286405605,3457.9909881509466
0.6154318181818181,784.3608511830959,784.2707329813092,0.04128613171805186,0.24141644335056192,0.2525835566494381,0.3547194901038677,2173.802180019251,3486.6358141145192
0.6312121212121212,784.8911872694126,784.8033124826045,0.04281965120022656,0.2419712729209493,0.25202872707905066,0.35471949010386783,2172.8290961855478,3514.982577780959
0.6469924242424243,785.4254251999871,785.339797930446,0.044375888155351276,0.2425343217059627,0.2514656782940373,0.35471949010386794,2171.8415971416516,3543.038940414253
0.6627727272727273,785.9635974298426,785.8802221692298,0.045954972162366714,0.24310563658745057,0.25089436341254945,0.3547194901038681,2170.8396006641715,3570.8122484611004
0.6785530303030303,786.5057371086228,786.4246187182671,0.04755703623382466,0.24368526568954685,0.25031473431045315,0.3547194901038683,2169.8230223509427,3598.309551733423
0.6943333333333334,787.0518780861042,786.9730217750242,0.049182216746273315,0.24427325835348426,0.24972674164651573,0.3547194901038684,2168.7917756652005,3625.537620259732
0.7101136363636363,787.60205492045,787.5254662195877,0.050830653374432266,0.24486966511377872,0.24913033488622127,0.35471949010386855,2167.7457719773497,3652.5029599229733
0.7258939393939393,788.1563028902909,788.0819876207437,0.052502489028810904,0.24547453767565958,0.24852546232434045,0.3547194901038687,2166.6849206045467,3679.211826990433
0.7416742424242424,788.7146580122675,788.6426222442389,0.05419786979645531,0.2460879288936317,0.2479120711063683,0.3547194901038689,2165.6091288483008,3705.6702416306694
0.7574545454545455,789.2771570665087,789.2074070640671,0.055916944884539285,0.2467098927510668,0.2472901072489332,0.35471949010386905,2164.5183020302647,3731.8840005031066
0.7732348484848486,789.8438376338107,789.7763797780491,0.05765986656654601,0.2473404843407317,0.2466595156592683,0.3547194901038693,2163.412343526388,3757.8586884976935
0.7890151515151516,790.4147381502512,790.3495788296095,0.059426790130820105,0.24797975984617443,0.24602024015382556,0.35471949010386944,2162.2911547995604,3783.599689694795
0.8047954545454545,790.9898979880077,790.9270434386126,0.06121787383130868,0.24862777652390233,0.24537222347609766,0.35471949010386966,2161.1546354308703,3809.1121976092068
0.8205757575757576,791.5693575758468,791.5088136455888,0.06303327884035755,0.24928459268630365,0.24471540731369637,0.35471949010386983,2160.002683149557,3834.4012247767655
0.8363560606060607,792.1531585800402,792.0949303759102,0.06487316920349201,0.24995026768528708,0.2440497323147129,0.35471949010387005,2158.8351938617043,3859.4716117375083
0.8521363636363637,792.7413441778313,792.6854355338915,0.06673771179619989,0.2506248618966459,0.24337513810335412,0.35471949010387027,2157.652061677663,3884.328035465781
0.8679166666666667,793.3339594733854,793.280372142059,0.06862707628286106,0.25130843670519853,0.24269156329480146,0.3547194901038705,2156.4531789381126,3908.9750172952554
0.8836969696969698,793.9310521341544,793.8797845489565,0.07054143507815719,0.2520010544908266,0.2419989455091734,0.3547194901038707,2155.2384362385487,3933.416930385768
0.8994772727272728,794.5326733697814,794.4837187415067,0.07248096331158195,0.25270277861563467,0.24129722138436532,0.354719490103871,2154.0077224518022,3957.6580067798004
0.9152575757575758,795.1388794456799,795.0922228176987,0.07444583879611207,0.25341367341261534,0.24058632658738469,0.3547194901038712,2152.7609247479186,3981.7023441000197
0.9310378787878788,795.7497340346356,795.7053477064791,0.07643624200278405,0.254133804176451,0.239866195823549,0.3547194901038715,2151.4979286102907,4005.553911947045
0.9468181818181819,796.3653118868352,796.3231482710542,0.07845235604399352,0.2548632371574718,0.23913676284252824,0.35471949010387177,2150.2186178462557,4029.2165580705687
0.9625984848484849,796.9857045808084,796.9456850109312,0.08049436667003154,0.255602039560402,0.23839796043959802,0.35471949010387205,2148.9228745892933,4052.694014410682
0.9783787878787878,797.6110295665553,797.5730267066222,0.08256246228608355,0.25635027955051076,0.23764972044948923,0.3547194901038723,2147.610579288239,4075.9899031451464
0.9941590909090909,798.24144442268,798.2052545638514,0.08465683400130067,0.2571080262713658,0.23689197372863416,0.3547194901038726,2146.281610676146,4099.1077429411
1.009939393939394,798.8771693625163,798.842468775297,0.08677767572875354,0.2578753498809971,0.2361246501190029,0.35471949010387294,2144.93584570686,4122.050955709459
1.0257196969696971,799.5185227330034,799.4847990496515,0.08892518436714132,0.2586523216176391,0.23534767838236087,0.35471949010387327,2143.573159439719,4144.822874316959
1.0415,800.1659767747987,800.13242180291,0.09109956011586703,0.25943901391372604,0.23456098608627396,0.3547194901038736,2142.19342483962,4167.426751951925
1.057280303030303,800.8202443752617,800.7855888566568,0.09330100701186449,0.2602355005901161,0.23376449940988392,0.35471949010387394,2140.796512436386,4189.865774199544
1.073060606060606,801.482411576229,801.4446766226739,0.09552973384389654,0.2610418571868861,0.2329581428131139,0.35471949010387427,2139.382289744597,4212.143075388318
1.088840909090909,802.154133310652,802.1102726691017,0.09778595572637057,0.2618581615327404,0.2321418384672596,0.35471949010387466,2137.950620264944,4234.261761402709
1.1046212121212122,802.8379056616417,802.7833307962607,0.10006989685174487,0.26268449474083516,0.23131550525916483,0.35471949010387505,2136.5013617377026,4256.224941746908
1.1204015151515152,803.5374042465197,803.465446821534,0.10238179536336395,0.26352094297177747,0.23047905702822255,0.35471949010387543,2135.034363050716,4278.035773649517
1.1361818181818182,804.2578143958034,804.1593219706232,0.10472191193509457,0.26436760053774994,0.2296323994622501,0.3547194901038759,2133.5494587952426,4299.69751918692
1.1519621212121212,805.005960499262,804.8694348708651,0.10709054425023792,0.26522457514100223,0.2287754248589978,0.35471949010387627,2132.0464600784703,4321.213610783383
1.1677424242424241,805.7899147325812,805.6027279802687,0.10948804904091806,0.26609199584773363,0.22790800415226634,0.3547194901038767,2130.5251405385784,4342.587709593059
1.1782626262626261,806.3365084270237,806.1090789167129,0.11110264037002414,0.26667615732979616,0.22732384267020386,0.35471949010387704,2129.5006131434893,4356.760146484559
1.1887828282828286,806.904710558778,806.6331532100395,0.1127304165412131,0.26726508910682617,0.22673491089317382,0.3547194901038774,2128.467719401034,4370.872424814032
1.1993030303030305,807.4959475370167,807.1780910464857,0.11437155875907896,0.2678588567389084,0.22614114326109158,0.35471949010387765,2127.426344329132,4384.925787369739
1.2098232323232325,808.1108464283515,807.7465067883592,0.11602626993693779,0.26845753364037456,0.22554246635962544,0.354719490103878,2126.376359170587,4398.921484241671
1.2203434343434345,808.7491820266514,808.3401046563727,0.11769477023398892,0.26906119946514195,0.22493880053485807,0.3547194901038784,2125.3176242249524,4412.860749463271
1.2308636363636365,809.4099622739918,808.9594704853043,0.11937729033732196,0.26966993767613373,0.22433006232386626,0.3547194901038787,2124.2499931113834,4426.744778772289
1.2413838383838385,810.0916171500738,809.604088052323,0.12107406378578704,0.2702838327680443,0.2237161672319557,0.3547194901038791,2123.17331763947,4440.5747118571735
1.2519040404040405,810.7922327579256,810.2725425494993,0.12278531971250593,0.270902967641569,0.22309703235843095,0.3547194901038795,2122.0874524144274,4454.351620998758
1.2624242424242424,811.5097751988774,810.9628229409959,0.12451127697229131,0.27152742147869624,0.22247257852130373,0.3547194901038799,2120.9922585634968,4468.076506349431
1.2729444444444444,812.2422683933559,811.6726328399097,0.12625213999918797,0.2721572682439596,0.22184273175604044,0.35471949010388026,2119.8876063645152,4481.750296826973
1.2834646464646466,812.987912638701,812.3996486888518,0.12800809618060113,0.2727925757343936,0.22120742426560638,0.35471949010388065,2118.7733769121437,4495.3738549824
1.2939848484848486,813.7451474930278,813.1416997305489,0.12977931416635818,0.2734334049677503,0.2205665950322497,0.3547194901038811,2117.6494631908386,4508.947984148946
1.3045050505050506,814.5126711379013,813.896871062582,0.13156594234094404,0.27407980962975126,0.21992019037024874,0.35471949010388154,2116.515771044285,4522.473436467215
1.3150252525252526,815.2894303516828,814.6635450344224,0.13336810658961348,0.27473183526586403,0.21926816473413596,0.35471949010388204,2115.3722205928934,4535.95092079199
1.3255454545454546,816.074593425665,815.4404000347673,0.13518590638435005,0.27538951786519644,0.21861048213480358,0.35471949010388254,2114.218748717428,4549.381109876578
1.3360656565656566,816.8675151015563,816.2263837010254,0.1370194080139091,0.2760528814111161,0.2179471185888839,0.35471949010388304,2113.055313354831,4562.764646534909
1.3465858585858586,817.6676992930713,817.0206732892334,0.1388686334013229,0.2767219338354079,0.21727806616459208,0.35471949010388354,2111.8819005940004,4576.102148685675
1.3571060606060605,818.47476258058,817.8226314509939,0.1407335423028988,0.27739666057784557,0.21660333942215446,0.3547194901038841,2110.6985359712835,4589.394213298818
1.3728863636363635,819.6976003058943,819.0388898340985,0.14355999300164787,0.2784192745355654,0.2155807254644346,0.3547194901038849,2108.9050318693257,4609.248376830822
1.3886666666666667,820.9343552870433,820.2700031492674,0.14642034418104685,0.2794541537362988,0.21454584626370124,0.3547194901038858,2107.090016459518,4629.00349194148
1.3991868686868687,821.7661382018379,821.0984419313011,0.14834501244010223,0.28015050150085075,0.21384949849914925,0.3547194901038864,2105.868731963365,4642.119439150778
1.4097070707070707,822.6033352246279,821.932617876657,0.15028257633981076,0.280851514926874,0.213148485073126,0.35471949010388704,2104.639264630547,4655.192687959343
1.420227272727273,823.4454441190978,822.7720708865927,0.1522312050563769,0.2815565316196668,0.2124434683803332,0.35471949010388776,2103.4027761972266,4668.223736615241
1.430747474747475,824.2917381531332,823.6161708152601,0.1541881239967162,0.2822645477274315,0.21173545227256854,0.3547194901038884,2102.1610272616267,4681.213060674034
1.441267676767677,825.1411537688606,824.4640185336139,0.15614920276108782,0.28297406886555765,0.21102593113444235,0.35471949010388915,2100.9166387394,4694.161106430327
1.451787878787879,825.9921458753623,825.3143182626626,0.15810842245507953,0.283682917389327,0.210317082610673,0.35471949010388987,2099.673429877004,4707.06828127366
1.462308080808081,826.8425173995347,826.1652231104152,0.16005726014062163,0.28438800968739797,0.20961199031260203,0.35471949010389064,2098.4368088439123,4719.93494029371
1.472828282828283,827.6892528658327,827.0141727175265,0.16198412454889066,0.28508515202191703,0.208914847978083,0.3547194901038915,2097.2141307969623,4732.761368904668
1.483348484848485,828.5284233886414,827.8577716662847,0.16387412686706676,0.28576895759883525,0.20823104240116477,0.3547194901038923,2096.0148433259806,4745.547762448998
1.493868686868687,829.3552689109882,828.6917926051717,0.1657096078972329,0.2864330372947619,0.2075669627052381,0.35471949010389314,2094.8501519488673,4758.29420588412
1.504388888888889,830.1645611955405,829.5114002816083,0.1674717892385353,0.28707059705706234,0.20692940294293768,0.35471949010389403,2093.7319723657533,4771.000659279049
1.514909090909091,830.9512561525315,830.3116384365316,0.16914347325311535,0.28767541475544356,0.2063245852445564,0.354719490103895,2092.671217214902,4783.666956257481
1.525429292929293,831.7112685472451,831.0880915903014,0.17071199024687564,0.28824290647622564,0.2057570935237744,0.3547194901038959,2091.675925960204,4796.292820430688
1.535949494949495,832.4420768034919,831.837507085867,0.17217117714557917,0.2887708424102205,0.20522915758977947,0.35471949010389686,2090.750009336395,4808.877898837638
1.546469696969697,833.1429309835034,832.558157402553,0.17352160649766385,0.2892594297062826,0.2047405702937174,0.3547194901038979,2089.893104036954,4821.421804723597
1.5569898989898991,833.8146532749751,833.249856007357,0.17476926047269445,0.2897108327220273,0.2042891672779727,0.3547194901038989,2089.101414118912,4833.924159230732
1.5675101010101011,834.4591991763613,833.9136986292139,0.17592350508796656,0.2901284400960815,0.2038715599039185,0.3547194901039,2088.368996442896,4846.384624035542
1.5780303030303031,835.0791775079707,834.5516765345493,0.17699518583246493,0.29051617574207256,0.20348382425792744,0.35471949010390114,2087.688969081337,4858.802921893134
1.588550505050505,835.6774539957108,835.1662905617079,0.17799525302412147,0.290878001500893,0.20312199849910703,0.35471949010390225,2087.054383588208,4871.178846101315
1.599070707070707,836.2568782043097,835.7602377084227,0.17893395584625132,0.29121762554191494,0.20278237445808509,0.3547194901039034,2086.458736417446,4883.512261779902
1.609590909090909,836.820122372961,836.3361911952525,0.1798204703497583,0.29153836777364955,0.20246163222635044,0.35471949010390463,2085.896204971492,4895.803102031796
1.620111111111111,837.3696027428829,836.8966654106157,0.1806628002932987,0.2918431239675744,0.20215687603242558,0.35471949010390585,2085.3617105224607,4908.0513614259835
1.630631313131313,837.9074543016563,837.4439458701775,0.18146782510236265,0.2921343831097986,0.20186561689020138,0.35471949010390713,2084.8508877800464,4920.257088459575
1.641151515151515,838.4355366122145,837.9800635849833,0.18224141408819167,0.2924142687256327,0.2015857312743673,0.3547194901039084,2084.360012414724,4932.42037799937
1.651671717171717,838.9554556386335,838.5067969220713,0.18298856106811248,0.2926845875854205,0.20131541241457954,0.35471949010390974,2083.8859156353797,4944.54136423904
1.662191919191919,839.4685922141695,839.025688704024,0.1837135161211567,0.29294687737391295,0.20105312262608704,0.3547194901039111,2083.4259005847207,4956.620214411679
1.6727121212121212,839.9761317695597,839.5380704121565,0.18441990427422905,0.29320244963109615,0.20079755036890382,0.35471949010391246,2082.9776670278184,4968.657123323068
1.6832323232323232,840.4790924852574,840.0450884839071,0.18511082786363015,0.29345242678673833,0.2005475732132617,0.3547194901039139,2082.5392463993326,4980.652308676719
1.6937525252525252,840.978350570052,840.5477298617338,0.18578895270869947,0.29369777333813857,0.20030222666186143,0.35471949010391535,2082.108947122643,4992.606007116814
1.7042727272727274,841.47466224913,841.0468453557656,0.18645657969325413,0.2939393217483955,0.2000606782516045,0.35471949010391685,2081.6853091883577,5004.518470898728
1.7147929292929296,841.9686825157428,841.5431702408569,0.18711570381792486,0.29417779381162756,0.19982220618837243,0.35471949010391834,2081.2670666830772,5016.389965095998
1.7253131313131316,842.4609809278833,842.0373420006958,0.18776806278254723,0.29441381823015284,0.19958618176984716,0.35471949010391995,2080.853116961783,5028.220765259466
1.7358333333333336,842.9520548188364,842.5299153902021,0.1884151769520132,0.29464794507419195,0.19935205492580804,0.3547194901039215,2080.4424952877926,5040.011155454301
1.7463535353535355,843.4423403029399,843.0213751048054,0.189058382291768,0.29488065769797844,0.19911934230202152,0.3547194901039232,2080.034353933775,5051.761426611383
1.7568737373737375,843.9322214322318,843.5121463808257,0.18969885758983365,0.2951123825887266,0.19888761741127342,0.35471949010392484,2079.627944908211,5063.471875139669
1.7673939393939395,844.4220378186892,844.0026038434012,0.19033764704318049,0.29534349753841294,0.19865650246158706,0.35471949010392656,2079.2226056233717,5075.142801755209
1.7779141414141415,844.9120909912016,844.4930788893699,0.19097567908074303,0.2955743384539712,0.1984256615460288,0.3547194901039283,2078.817746951308,5086.774510490301
1.7884343434343435,845.4026497151273,844.9838658568773,0.19161378213620237,0.29580520506390734,0.19819479493609266,0.35471949010393006,2078.412843215345,5098.367307852775
1.7989545454545455,845.8939544883199,845.4752272111776,0.19225269805683864,0.29603636576964215,0.19796363423035784,0.3547194901039319,2078.007423681591,5109.921502111057
1.8094747474747475,846.3862216936626,845.9673981265292,0.19289309505096572,0.29626806232991165,0.19773193767008837,0.3547194901039338,2077.6010643432314,5121.437402687573
1.8199949494949497,846.879651431672,846.4605930260187,0.19353559779062662,0.296500520751966,0.19749947924803402,0.3547194901039357,2077.1933688190848,5132.915319676699
1.8305151515151517,847.3744851355552,846.9550427566512,0.1941810382397543,0.29673404204156145,0.19726595795843854,0.35471949010393766,2076.78380919238,5144.355563861855
1.8410353535353536,847.8715683728412,847.4513511519477,0.19483292141632746,0.2969698943192808,0.19703010568071921,0.35471949010393966,2076.370161378994,5155.7584515552235
1.8462954545454546,848.1219482020914,847.7008785827123,0.19516550218806883,0.29709022252433315,0.19690977747566688,0.35471949010394066,2076.159124625862,5161.445994757826
1.8489255050505051,848.2477082310799,847.8261037554944,0.19533379917001714,0.2971511126162273,0.1968488873837727,0.3547194901039412,2076.052332978088,5164.286312984123
1.8495830176767676,848.2791093753968,847.8574087914615,0.19537561550062943,0.2971662418252255,0.19683375817477453,0.3547194901039413,2076.025798724186,5164.996033764845
1.8502405303030303,848.3104075315573,847.8886665767347,0.19541692124871268,0.2971811863047249,0.19681881369527507,0.35471949010394144,2075.999588456781,5165.705611057807
1.850898042929293,848.341505778551,847.9198244590859,0.1954572672435434,0.29719578354410714,0.19680421645589288,0.35471949010394155,2075.973987193947,5166.41504472999
1.8515555555555556,848.3722639941567,847.950805340051,0.19549600690066213,0.2972097996081779,0.1967902003918221,0.3547194901039417,2075.949405221234,5167.124334488928
1.8522130681818183,848.4025156633879,847.9815153911901,0.19553237814085958,0.29722295877557525,0.19677704122442477,0.3547194901039418,2075.9263261105616,5167.833479832438
1.852870580808081,848.4321210324658,848.011870983189,0.1955657552329052,0.2972350346558334,0.19676496534416663,0.35471949010394194,2075.905146915212,5168.542480045378
1.8535280934343437,848.4610329009699,848.0418335019805,0.19559595628008125,0.2972459614384563,0.1967540385615437,0.3547194901039421,2075.885983056448,5169.251334281785
1.8541856060606061,848.4893169614356,848.0714222749573,0.19562333212045432,0.2972558660571648,0.19674413394283521,0.3547194901039422,2075.868611912481,5169.960041710575
1.8548431186868686,848.5171079500808,848.1006946492384,0.1956485520597589,0.29726499066774326,0.19673500933225674,0.3547194901039424,2075.8526087801374,5170.668601642998
1.8555006313131313,848.5445481360136,848.1297156797349,0.1956723100427644,0.2972735863404147,0.19672641365958532,0.3547194901039425,2075.8375333217214,5171.377013582711
1.856158143939394,848.5717515702113,848.1585395833854,0.1956951565183549,0.29728185222838277,0.1967181477716172,0.3547194901039426,2075.8230362538243,5172.085277207996
1.8568156565656566,848.5987970208706,848.1872052117719,0.19571746766755502,0.29728992443448726,0.19671007556551273,0.35471949010394277,2075.808878873465,5172.793392326538
1.859445707070707,848.7061519011085,848.3006895853982,0.19580486093784943,0.29732154344629314,0.19667845655370686,0.35471949010394327,2075.753424098037,5175.624366299167
1.8620757575757576,848.8127979074569,848.4127031927316,0.1958919115713842,0.2973530384916229,0.19664696150837704,0.3547194901039438,2075.698186740318,5178.4529615546435
1.8725959595959596,849.2354229657305,848.8503680291558,0.19624381755226308,0.29748035858533817,0.19651964141466186,0.35471949010394593,2075.4748873137655,5189.743592631113
1.8831161616161616,849.6545417199902,849.277645498844,0.1966015147148851,0.2976097739369981,0.19639022606300188,0.3547194901039481,2075.2479131342034,5200.9963611488365
1.8936363636363638,850.0725948912526,849.6999046413438,0.1969649199667056,0.29774125448359984,0.19625874551640016,0.3547194901039503,2075.0173169274126,5212.211499249981
1.9094166666666668,850.7006767342987,850.3303308759022,0.19752104736732848,0.2979424621828496,0.19605753781715038,0.35471949010395376,2074.6644302576856,5228.964245149209
1.9251969696969697,851.3321634847156,850.9618140740952,0.19809095444576033,0.2981486553894943,0.19585134461050568,0.3547194901039573,2074.3027997918316,5245.633920334727
1.9409772727272727,851.9683440010097,851.5969250337791,0.1986753067417079,0.29836007489676414,0.19563992510323588,0.3547194901039609,2073.9320032163832,5262.221552707275
1.9567575757575757,852.6099035858235,852.2369063572539,0.19927478642933266,0.2985769675162589,0.19542303248374113,0.3547194901039647,2073.5516076625986,5278.72818121418
1.9883181818181819,853.9107379429431,853.5338883463729,0.20052188710643787,0.2990281703480058,0.19497182965199422,0.3547194901039725,2072.7602688358033,5311.5025674928675
2.019878787878788,855.2370441418218,854.8558540819653,0.20183779988738662,0.2995042694986166,0.19449573050138344,0.35471949010398085,2071.9252657800293,5343.965275854461
2.051439393939394,856.5907320318893,856.2048462370078,0.2032281018758353,0.3000072827722741,0.1939927172277259,0.35471949010398973,2071.043059583988,5376.124344225388
2.083,857.9736481984406,857.5827366977903,0.20469841574169967,0.3005392444590999,0.1934607555409001,0.35471949010399917,2070.1100824226455,5407.987646344756
2.1145606060606066,859.3876558307993,858.9913922990238,0.20625443257105003,0.3011022136022793,0.19289778639772068,0.35471949010400916,2069.122723057987,5439.56289856094
2.1461212121212125,860.834657344514,860.4327136756225,0.20790193851576802,0.30169828363994594,0.19230171636005405,0.3547194901040199,2068.0773099286657,5470.8576687376835
2.1776818181818185,862.3166068545544,861.9086507014711,0.20964684424889987,0.30232959306217116,0.19167040693782886,0.35471949010403125,2066.9700924593194,5501.87938556144
2.2092424242424245,863.8355214757222,863.4212142525976,0.21149521693847104,0.3029983369791365,0.19100166302086352,0.3547194901040434,2065.7972207718144,5532.635347974321
2.2408030303030304,865.3934930723925,864.9724879717646,0.2134533143189232,0.303706779448229,0.190293220551771,0.3547194901040564,2064.5547240654582,5563.132734720536
2.2723636363636364,866.992700630339,866.564640603957,0.21552762024905636,0.30445726633895615,0.18954273366104385,0.3547194901040702,2063.238488053963,5593.378614034451
2.2881439393939393,867.8084758117055,867.3767506750474,0.21661044839735977,0.3048490351317879,0.18915096486821212,0.35471949010407755,2062.551387186944,5608.409419435562
2.3039242424242423,868.6354231293883,868.1999388611746,0.21772488105293253,0.3052522384811375,0.18874776151886252,0.35471949010408504,2061.8442319055835,5623.379953503796
2.3197045454545453,869.4738452437863,869.0345059774577,0.21887180848905827,0.3056671984891688,0.18833280151083123,0.35471949010409287,2061.1164572933285,5638.291073105833
2.3354848484848483,870.3240527228819,869.8807606253324,0.22005214190779462,0.30609424483010633,0.18790575516989366,0.3547194901041009,2060.3674851534224,5653.143630082164
2.3512651515151513,871.1863644612215,870.7390196144086,0.22126681454085342,0.30653371514853556,0.18746628485146447,0.3547194901041093,2059.5967233103484,5667.938471570885
2.3670454545454547,872.0611014289751,871.6096047147184,0.2225167526501634,0.3069859445673641,0.18701405543263588,0.3547194901041179,2058.8035840112148,5682.676440338076
2.398606060606061,873.8491623923127,873.3890506486798,0.22512623699704779,0.30793005978462484,0.18606994021537518,0.35471949010413617,2057.147754358073,5711.985108284941
2.430166666666667,875.6911417632629,875.2219638096167,0.22788911433650463,0.30892967280883005,0.18507032719116995,0.3547194901041557,2055.3945902771593,5741.076300034897
2.461727272727273,877.5900156601633,877.1113121524613,0.23081392841588833,0.3099878747801505,0.1840121252198495,0.35471949010417675,2053.538670394615,5769.956635344378
2.509068181818182,880.5519501850092,880.0580494428426,0.23552466492287347,0.31169222607317737,0.1823077739268226,0.35471949010421133,2050.5495061922256,5812.896172019749
2.556409090909091,883.6605073403366,883.1502434174009,0.24065281954377712,0.3135475998445641,0.18045240015543593,0.35471949010425,2047.2954723072073,5855.398194903492
2.580079545454545,885.2736506343886,884.7547398118795,0.24338437457187256,0.314535880411138,0.17946411958886202,0.35471949010427106,2045.5621835752365,5876.492032205343
2.60375,886.9282523597856,886.4003687818927,0.24623378034288132,0.3155667995472368,0.1784332004527632,0.35471949010429343,2043.7541134961414,5897.484764594424
2.6274204545454545,888.6260705891523,888.0888762605963,0.24920592226076213,0.3166421247990906,0.17735787520090943,0.35471949010431714,2041.8681620717352,5918.379156200751
2.651090909090909,890.3689447783237,889.8220892643711,0.25230588165423623,0.31776369459879233,0.1762363054012077,0.35471949010434234,2039.9011049811734,5939.177979110993
2.6668712121212126,891.5568386952921,891.0033414350614,0.2544461313531487,0.31853804004059827,0.17546195995940175,0.35471949010436,2038.5430248222262,5952.992141074967
2.6826515151515156,892.7662028208954,892.2058985878044,0.25664714874473743,0.3193343713216529,0.17466562867834712,0.3547194901043784,2037.1463849579466,5966.765892457867
2.6984318181818185,893.9976470025773,893.4303666965056,0.2589105916432749,0.3201532882415618,0.17384671175843822,0.3547194901043976,2035.7101334341287,5980.500064185382
2.714212121212121,895.2517995321672,894.6773701453614,0.26123816011592516,0.3209954058870879,0.17300459411291205,0.35471949010441756,2034.2331914852975,5994.195490668053
2.7299924242424245,896.529307627073,895.9475522229594,0.2636315971032983,0.3218613548566691,0.17213864514333088,0.35471949010443843,2032.7144531409385,6007.85301019474
2.7457727272727275,897.8308379044506,897.2415756169103,0.26609268899350474,0.32275178146811173,0.17124821853188826,0.3547194901044602,2031.152784861236,6021.473465329584
2.7615530303030305,899.1606921131782,898.561151067193,0.2686363975669323,0.3236673455189652,0.1703326544810348,0.35472424350075416,2029.5386927553143,6035.057730137164
2.7773333333333334,900.526832403827,899.9129083608004,0.27128357198754405,0.32460872618370107,0.16939127381629893,0.3547406143765765,2027.8589471351038,6048.606839476739
2.7931136363636364,901.9329883680155,901.3024630749371,0.274039288469998,0.3255766479576084,0.16842335204239164,0.3547697148184559,2026.1103269248517,6062.121949915438
2.80889393939394,903.3818961425816,902.7332979193072,0.2769085068506223,0.3265718723269359,0.16742812767306411,0.35481257781611253,2024.2896848958437,6075.60427626251
2.824674242424243,904.8760305273917,904.2081428703221,0.2798965037324238,0.32759518840380825,0.16640481159619172,0.3548703233400346,2022.3936728173314,6089.055077811759
2.840454545454546,906.4178508269563,905.7295191725668,0.28300886571421163,0.32864740914094215,0.16535259085905785,0.3549441596770482,2020.418745752945,6102.475654737368
2.8562348484848488,908.0099008993047,907.2999581135874,0.2862514959995164,0.3297293692786315,0.16427063072136847,0.3550353878744492,2018.3611578670498,6115.867348402791
2.8720151515151517,909.6548495019757,908.922092094312,0.28963062452391725,0.3308419230993774,0.1631580769006226,0.355145407649455,2016.2169559985234,6129.231543227873
2.8877954545454543,911.3555009724854,910.5986952081204,0.2931528145536163,0.3319859400989877,0.1620140599010123,0.3552757241054783,2013.9819754736782,6142.56966909887
2.9035757575757573,913.1147788253807,912.3327027667003,0.29682495524235164,0.33316229504541084,0.16083770495458913,0.355427954980374,2011.6518448292175,6155.883203690551
2.9193560606060602,914.9356603623768,914.1272196479899,0.3006542164363447,0.33437184398151487,0.15962815601848512,0.35560383829202463,2009.2220144904347,6169.173673878087
2.9351363636363637,916.8209951746262,915.9855181372625,0.3046479055319518,0.3356153644862594,0.1583846355137406,0.355805240288059,2006.687847601168,6182.442654480645
2.950916666666667,918.773028575473,917.9110184901346,0.30881306768873423,0.33689340286044367,0.15710659713955633,0.35603416361661405,2004.04487370574,6195.691759991941
2.96669696969697,920.7921593879399,919.9072245159175,0.31315540642555517,0.3382058752768897,0.15579412472311024,0.3562927556462557,2001.2894736769956,6208.922618133991
2.982477272727273,922.8737345458032,921.977452319575,0.31767642934449236,0.33955102697141903,0.15444897302858093,0.3565833165937783,1998.4206908768049,6222.136796432819
2.998257575757576,925.000242751727,924.1232700704994,0.3223663603899796,0.34092286423134793,0.15307713576865206,0.35690830318079836,1995.4447286313982,6235.335611086767
3.014037878787879,927.125907440945,926.3357875002699,0.32718992685540965,0.34230604793361086,0.15169395206638916,0.3572702928140284,1992.383968984806,6248.519676712615
3.029818181818182,929.163370182602,928.5641633733258,0.3320739295515913,0.34367164042038256,0.15032835957961743,0.3576717395785945,1989.2848599596773,6261.688091239897
3.045598484848485,931.0159133646581,930.6815998662296,0.3369376658017498,0.34498885271368057,0.14901114728631945,0.35811423410710147,1986.1986108631124,6274.837756882908
3.061378787878788,932.6584237834353,932.5648315846217,0.34176752939637206,0.346252742431365,0.14774725756863502,0.3585977960353749,1983.1338554181707,6287.964116028063
3.0929393939393943,935.577755762953,935.7238567173744,0.35156874533857646,0.34871172185117705,0.14528827814882292,0.35968491074328585,1976.9145638507302,6314.132637990534
3.1245000000000003,938.4464388978967,938.6292064960152,0.3618958069525652,0.35119957030459775,0.14280042969540224,0.360933408143476,1970.3616006682994,6340.181552378484
3.1402803030303033,939.9460115388479,940.1192622142537,0.36731502185895665,0.35247197313748485,0.14152802686251512,0.36162168511498693,1966.9228765581265,6353.162555555595
3.1560606060606062,941.5071131773266,941.6630643260636,0.3729195801524628,0.3537659050132966,0.14023409498670342,0.3623554905495536,1963.3665441255416,6366.116362269515
3.1718409090909097,943.1372042562659,943.271267674692,0.37871800073665196,0.355082008150387,0.138917991849613,0.3631372643804751,1959.6871977611343,6379.044560790215
3.1876212121212126,944.8419723255025,944.9509396993751,0.3847183958300257,0.3564206125750078,0.1375793874249922,0.3639696115939064,1955.8796899145989,6391.948859430867
3.2034015151515156,946.6264556708185,946.7076525026077,0.39092889181508345,0.35778191885125094,0.13621808114874906,0.36485527176271715,1951.938864047966,6404.831059917781
3.219181818181818,948.4955476038422,948.5464584883398,0.39735777132293765,0.3591660645648746,0.13483393543512542,0.36579710396908555,1947.859464476825,6417.693048156544
3.2349621212121216,950.4542133523479,950.4723232589607,0.4040135091625109,0.3605731460791334,0.13342685392086662,0.3667980780479031,1943.6361135717084,6430.536792599138
3.2507424242424245,952.5075793089067,952.4903097728122,0.41090476738623855,0.36200322371447863,0.1319967762855214,0.3678612676218393,1939.263314889115,6443.36434578774
3.2665227272727275,954.6609668400755,954.6056528595283,0.4180403724485671,0.36345632089412166,0.13054367910587833,0.3689898426916889,1934.735467665422,6456.177847147498
3.28230303030303,956.9199016275874,956.8237861437453,0.42542928162895094,0.3649324210180509,0.1290675789819491,0.37018706061414736,1930.0468881229322,6468.979526198124
3.2980833333333335,959.2901111186513,959.1503476671021,0.4330805402850524,0.36643146333660914,0.12756853666339088,0.371456254762379,1925.1918365945505,6481.771705813232
3.3138636363636365,961.777514782817,961.5911747156346,0.4410032295916488,0.3679533382196338,0.12604666178036622,0.3728008203487372,1920.1645506856878,6494.556805337482
3.3296439393939394,964.3882085941027,964.1522916534985,0.4492064037858221,0.3694978819239138,0.1245021180760862,0.3742241969525272,1914.9592850948763,6507.337343436058
3.3454242424242424,967.1284438122619,966.8398917879178,0.4576990157287458,0.3710648708687553,0.12293512913124474,0.37572984731258596,1909.570358848008,6520.115940567552
3.3612045454545454,970.0045995813466,969.660313152827,0.46648982953252344,0.3726540154027916,0.12134598459720843,0.3773212319487366,1903.9922107403481,6532.895320968494
3.376984848484849,973.0231486266522,972.6200076268487,0.4755873190093677,0.3742649530401658,0.11973504695983417,0.3790017791843713,1898.2194637748844,6545.678314026909
3.392765151515152,976.1906152281821,975.7255025994939,0.4849995507672378,0.3758972411468965,0.11810275885310352,0.38077485016391793,1892.2469993431548,6558.467854907937
3.4085454545454548,979.5135246126803,978.9833543149728,0.49473405090836203,0.37755034906465496,0.11644965093534504,0.38264369850039504,1886.0700418107483,6571.266984278922
3.4243257575757577,982.9983429166575,982.4000920016904,0.5047976544982106,0.37922364966848854,0.11477635033151144,0.38461142425534484,1879.6842540356927,6584.078846965286
3.4401060606060607,986.6514069279032,985.9821519227792,0.5151963372771217,0.38091641036728036,0.11308358963271964,0.3866809220513963,1873.0858441546402,6596.906689353107
3.455886363636364,990.4788429181174,989.7358005597828,0.5259350294986488,0.3826277835712508,0.11137221642874916,0.3888548232512074,1866.2716837104144,6609.753855340237
3.471666666666667,994.486474042436,993.6670462747575,0.5370174123089508,0.38435679666989836,0.10964320333010165,0.39113543230929326,1859.2394368580146,6622.623780626257
3.48744696969697,998.6797160108453,997.7815389942581,0.5484456977367446,0.38610234158671897,0.10789765841328106,0.3935246576173523,1851.9876999704184,6635.519985123632
3.503227272727273,1003.0634610384184,1002.0844577302435,0.5602203941431183,0.3878631640039788,0.1061368359960212,0.39602393741889663,1844.5161504707282,6648.446063269442
3.519007575757576,1007.6419504597875,1006.5803861041097,0.572340059875244,0.3896378523817125,0.10436214761828749,0.39863416166180976,1836.8257031494488,6661.405672020504
3.534787878787879,1012.418636847722,1011.2731764734012,0.5848010488563095,0.391424826929717,0.10257517307028301,0.40135559098042184,1828.9186715985777,6674.402516326067
3.550568181818182,1017.3960369998788,1016.1658037736458,0.5975972528908694,0.39322232872905066,0.10077767127094932,0.4041877743397128,1820.7989317299052,6687.440331892917
3.566348484848485,1022.5755777383921,1021.2602107707102,0.6107198465206913,0.3950284092395246,0.09897159076047542,0.407129467216297,1812.4720836749132,6700.52286508915
3.582128787878788,1027.9574370828743,1026.557147054659,0.6241570412672939,0.39684092047060215,0.09715907952939787,0.4101785525121175,1803.9456077284192,6713.653849875816
3.597909090909091,1033.5403839793682,1032.0560047680458,0.6378938569680948,0.3986575061333161,0.0953424938666839,0.4133319666716162,1795.2290094455882,6726.836981710932
3.613689393939394,1039.321620359344,1037.7546547150155,0.6519119185703237,0.400475594128195,0.09352440587180498,0.4165856336735509,1786.333948584905,6740.075888437673
3.629469696969697,1045.2966298219405,1043.6492871002722,0.6661892871067306,0.4022923907563612,0.09170760924363881,0.41993440966666334,1777.274346361332,6753.374098247255
3.64525,1051.4590376347298,1049.7342616515386,0.6807003335634095,0.4041048770652876,0.08989512293471244,0.42337204098911857,1768.0664654825782,6766.735004895468
3.6610303030303033,1057.8004869901365,1056.0019722370237,0.6954156639036331,0.4059098077544591,0.08809019224554089,0.426891138136358,1758.7289577246918,6780.1618304473495
3.6768106060606063,1064.3105364989553,1062.4427312553166,0.7103021025996595,0.4077037130667562,0.08629628693324382,0.4304831679115003,1749.2828743818332,6793.657585924007
3.6925909090909093,1070.9765837223092,1069.044679012108,0.7253227406480994,0.4094829040764509,0.08451709592354911,0.4341384655093739,1739.7516357984673,6807.225030324882
3.7083712121212122,1077.7838191263486,1075.7937229826136,0.7404370522428132,0.4112434817525019,0.08275651824749806,0.4378462676656456,1730.1609573354103,6820.866628593373
3.724151515151515,1084.715214194274,1082.6735112839679,0.7556010821298521,0.41298135012532255,0.08101864987467747,0.4415947672753421,1720.538730485089,6834.584509179041
3.7399318181818186,1091.7515465694596,1089.6654438607384,0.7707677032820118,0.41469223381627024,0.07930776618372976,0.44537118909038625,1710.9148593659943,6848.380421920876
3.7557121212121216,1098.8668624964705,1096.744475919375,0.7858761506991643,0.4163705062551529,0.07762949374484714,0.4491591748158888,1701.3279019749218,6862.265688243856
3.7714924242424246,1106.0265425445941,1103.8768474179515,0.8008492290800661,0.4180089581694224,0.07599104183057762,0.45293800435256865,1691.8268420388804,6876.264767140417
3.7872727272727276,1113.204326187971,1111.0361772294314,0.8156326429253121,0.4196031121011752,0.07439688789882483,0.45669251096798225,1682.4461323791925,6890.379580526559
3.7977929292929296,1117.9864624769532,1115.8109607420242,0.8253565277945377,0.42063915035823174,0.07336084964176828,0.4591745883444091,1676.275910691746,6899.853720058403
3.8083131313131315,1122.7566850717033,1120.5778189645882,0.8349564953698912,0.4216523281334356,0.0723476718665644,0.4616346927462365,1670.1843198380025,6909.379089379127
3.8188333333333335,1127.5066819417927,1125.3284534342024,0.8444166816441059,0.42264139467804734,0.07135860532195266,0.46406833530139113,1664.1814262104585,6918.955407171247
3.8293535353535355,1132.2280040641272,1130.0544143523114,0.8537213214269183,0.42360511776478726,0.07039488223521276,0.46647104436847525,1658.2772334979877,6928.582277711471
3.8398737373737375,1136.9121004752035,1134.7471345146887,0.862854815979993,0.424542289248571,0.069457710751429,0.46883838444644416,1652.4816397685809,6938.259189081346
3.8503939393939395,1141.5503547654434,1139.3979659964632,0.8718017986183549,0.425451730699675,0.068548269300325,0.47116597427613444,1646.8043958424273,6947.985511892319
3.8609141414141415,1146.1341222061299,1143.9982181631335,0.8805471976555325,0.42633229907123904,0.06766770092876095,0.47344950394640534,1641.2550653505223,6957.760498544876
3.8714343434343435,1150.6547669208587,1148.539196130422,0.8890762960897869,0.42718289236279056,0.06681710763720947,0.4756847508251786,1635.8429868611977,6967.583283031873
3.8819545454545454,1155.103698609939,1153.0122390420113,0.8973747874617004,0.428002455242548,0.06599754475745201,0.4778675941464914,1630.5772384360885,6977.452881288375
3.8924747474747474,1159.4724083767937,1157.408757643856,0.9054288273507007,0.42878998459359957,0.06521001540640044,0.4799940280958349,1625.4666049533796,6987.368192083408
3.9029949494949494,1163.7525032204173,1161.7202706824828,0.9132250800144811,0.4295445349527398,0.0644554650472602,0.4820601732455276,1620.5195485130969,6997.327998442294
3.9135151515151514,1167.9357387599514,1165.9384396756511,0.92075075970654,0.4302652238159649,0.0637347761840351,0.484062286197965,1615.7441822193557,7007.330969581537
3.9240353535353534,1172.0140497507816,1170.055101610764,0.9279936662291157,0.4309512367916418,0.0630487632083582,0.48599676729555474,1611.148247620502,7017.375663331436
3.9345555555555554,1175.9795779364945,1174.0622991243285,0.9349422142870166,0.4316018325915808,0.062398167408419206,0.4878601662499015,1606.739096082847,7027.460529014678
3.945075757575758,1179.8246967551643,1177.9523077048389,0.9415854561964441,0.43221634786224317,0.061783652137756814,0.48964918552668485,1602.5236743809478,7037.583910741831
3.9555959595959593,1183.5420323772994,1181.7176594393295,0.9479130974641201,0.43279420187398826,0.06120579812601174,0.49136068129296306,1598.5085148119815,7047.744051077047
3.9661161616161618,1187.1244804892353,1185.3511627857984,0.9539155046749077,0.4333349011069588,0.06066509889304118,0.49299166168504005,1594.6997301907136,7057.93909501892
3.9766363636363637,1190.565218139024,1188.8459177924071,0.9595837049946048,0.43383804380002083,0.06016195619997916,0.4945392820796358,1591.1030141649949,7068.167094232084
3.9871565656565657,1193.8577098155367,1192.1953260888217,0.9649093763845591,0.4343033245674624,0.0596966754325376,0.49600083693682107,1587.7236474250094,7078.426011454339
3.9976767676767673,1196.995706709865,1195.39309482842,0.9698848272985632,0.4347305392423625,0.05926946075763751,0.4973737476109556,1584.566510586463,7088.713724990901
4.00819696969697,1199.9732377705054,1198.4332335366696,0.9745029641304735,0.43511959018479657,0.05888040981520341,0.49865554526498407,1581.636104846466,7099.028033190694
4.018717171717172,1202.7845906436112,1201.3100424801162,0.9787572439054651,0.43547049241312186,0.05852950758687816,0.49984384762277834,1578.9365820029577,7109.3666587773905
4.029237373737374,1205.4242797749844,1204.0180906471596,0.9826416084952174,0.43578338110578385,0.05821661889421618,0.5009363276662895,1576.4717861979918,7119.727252877229
4.039757575757576,1207.8869976479034,1206.5521806198578,0.986150394706023,0.436058521332446,0.05794147866755404,0.5019306713741661,1574.245310970684,7130.107398541205
4.050277777777778,1210.1675429949375,1208.907296340096,0.9892782114427588,0.4362963214114985,0.057703678588501485,0.5028245199219917,1572.2605772019363,7140.504613492686
4.06079797979798,1212.2607162182544,1211.0785277460072,0.9920197699028438,0.4364973522763443,0.05750264772365569,0.5036153888799276,1570.5209408636497,7150.916351727865
4.06605808080808,1213.2353774939322,1212.093655615141,0.9932440206217265,0.43658430911084045,0.05741569088915956,0.5039713677291966,1569.7441013146308,7156.126854046575
4.071318181818182,1214.1611660110177,1213.0609627537228,0.9943696441529707,0.43666237715513273,0.057337622844867264,0.5043005519092926,1569.0298449430477,7161.340003419799
4.076578282828283,1215.0373516838908,1213.9798096504542,0.9953958839132726,0.4367316897458359,0.0572683102541641,0.5046025343506653,1568.378651833432,7166.555463228248
4.081838383838384,1215.863160146994,1214.849533941784,0.9963219226815745,0.4367924000485472,0.05720759995145279,0.5048768662159546,1567.7910405475689,7171.772892346944
4.087098484848484,1216.6377579195882,1215.6694415652094,0.9971468612747839,0.4368446850499235,0.0571553149500765,0.5051230451927584,1567.2675816556664,7176.991944829261
4.092358585858586,1217.3602338546636,1216.438796408062,0.9978696927206531,0.43688875124062165,0.057111248759378376,0.5053405004664016,1566.8089141247717,7182.212269480191
4.097618686868687,1218.0295762722474,1217.1568087526161,0.9984892722628875,0.4369248430237024,0.05707515697629761,0.5055285734593374,1566.4157643518151,7187.433509291894
4.102878787878788,1218.6446462789906,1217.822624040564,0.9990042870741208,0.43695325578250327,0.057046744217496746,0.5056864938053853,1566.0889653820243,7192.655300713519
4.106385521885522,1219.0239105805279,1218.237048375343,0.9992888072494485,0.4369681092470793,0.057031890752920686,0.5057745801524508,1565.908425137057,7196.136618570359
4.109892255892255,1219.3780610428641,1218.6275748638534,0.9995257130663168,0.43697984532893963,0.057020154671060364,0.5058485569383585,1565.7580982431477,7199.617904895277
4.1133989898989896,1219.7066529073932,1218.993911429993,0.9997145306570315,0.4369886282514335,0.057011371748566506,0.5059080884937409,1565.6382853896566,7203.099045915617
4.116905723905724,1220.0092549601334,1219.3357878198058,0.9998548925975783,0.4369946670235509,0.057005332976449094,0.5059528328750673,1565.549219722868,7206.579926032448
4.120412457912458,1220.2855739316099,1219.6530239502395,0.9999468526926882,0.43699824345230165,0.05700175654769833,0.5059825277419575,1565.4908671013739,7210.060428110222
4.122165824915825,1220.4139182268982,1219.8024149127457,0.9999750455436477,0.43699922994232826,0.05700077005767173,0.5059917414662534,1565.472977529175,7211.800500657719
4.123919191919192,1220.5359267114718,1219.9457421744762,0.9999920357445552,0.4369997744190549,0.057000225580945106,0.5059973440688302,1565.4621965185477,7213.54043493131
4.124795875420876,1220.5946890164703,1220.0151848258913,0.9999966916242055,0.43699991110204955,0.05700008889795046,0.5059988918898384,1565.459242163372,7214.410345895729
4.125234217171718,1220.6235538076744,1220.0493670154183,0.9999981734234253,0.43699995238072237,0.057000047619277655,0.5059993867282702,1565.4583018982612,7214.845286626176
4.12567255892256,1220.6521016454476,1220.0831990772024,0.9999991599567156,0.4369999788483267,0.0570000211516733,0.5059997171898395,1565.4576759006086,7215.280217275066
4.126110900673401,1220.6803612634064,1220.1166902673704,0.9999997230347886,0.4369999933451462,0.05700000665485376,0.5059999064154824,1565.4573186034395,7215.715137673935
4.126549242424243,1220.7083713852885,1220.1498524014403,0.9999999589370473,0.4369999991516913,0.0570000008483087,0.5059999859587164,1565.457168913346,7216.150047673142
4.126987584175085,1220.7361854482933,1220.1827008024427,1.0000000000887255,0.4370000001188783,0.0569999998811217,0.5059999998802662,1565.4571428008428,7216.584947148698
4.127425925925927,1220.763866096522,1220.2152536618507,1.0000000000901323,0.4370000001176064,0.056999999882393584,0.5059999998820471,1565.45714279995,7217.01983601084
4.1278642676767685,1220.7914332280827,1220.2475234601857,1.00000000009109,0.4370000001163236,0.05699999988367639,0.5059999998836764,1565.4571427993424,7217.454714194305
4.12830260942761,1220.8188908026282,1220.2795200451656,1.00000000009109,0.43700000011501816,0.05699999988498183,0.5059999998849818,1565.4571427993424,7217.889581638531
4.128740951178452,1220.8462426428416,1220.311252922514,1.00000000009109,0.437000000113712,0.05699999988628804,0.5059999998862881,1565.4571427993424,7218.324438285155
4.129179292929294,1220.8734924382659,1220.342731267669,1.00000000009109,0.437000000112405,0.056999999887595,0.505999999887595,1565.4571427993424,7218.759284077937
4.130932659932661,1220.9815405645168,1220.4662718955014,1.00000000009109,0.43700000010716955,0.05699999989283043,0.5059999998928304,1565.4571427993424,7220.498557656128
4.132686026936027,1221.0882196212197,1220.5863956572039,1.00000000009109,0.43700000010192214,0.05699999989807789,0.5059999998980779,1565.4571427993424,7222.237653577307
4.134439393939394,1221.1937111705547,1220.7035540620977,1.00000000009109,0.43700000009666273,0.05699999990333728,0.5059999999033373,1565.4571427993424,7223.976569114188
4.144959595959596,1221.809224671929,1221.3628871837575,1.00000000009109,0.43700000006485945,0.05699999993514058,0.5059999999351406,1565.4571427993424,7234.4061641204335
4.150219696969698,1222.1099517681914,1221.6749060576276,1.00000000009109,0.43700000004880074,0.05699999995119923,0.5059999999511993,1565.4571427993424,7239.618396648722
4.155479797979798,1222.408098233978,1221.9803961582616,1.00000000009109,0.437000000032638,0.05699999996736199,0.505999999967362,1565.4571427993424,7244.8288917534765
4.166,1223.0,1222.580121842468,1.00000000009109,0.437,0.056999999999999995,0.5060000000000001,1565.4571427993424,7255.244634648363
