z,T,t,fs,x,y,w,rhob,p
0.0,556.2445470010884,298.0,0.0,0.22647927930451417,0.2675207206954858,0.3547192719099446,2200.0,2040.0
0.0023144444444444445,577.4096398744414,346.7201438942689,5.27522231111336e-07,0.22647947016282163,0.26752052983717833,0.3547192719099446,2199.9996652645364,2044.8100446513342
0.004628888888888889,596.2158607088182,389.648185030803,2.2130691472721043e-06,0.2264800799961379,0.2675199200038621,0.3547192719099446,2199.9985957127806,2049.8878007032317
0.009257777777777778,627.9521819518322,461.3612641936695,1.286950166401943e-05,0.2264839355088613,0.2675160644911387,0.3547192719099446,2199.9918337496442,2060.735096774706
0.013886666666666667,653.3983920622615,518.2323517080006,3.89520958719205e-05,0.2264933722292338,0.2675066277707662,0.3547192719099446,2199.975283225794,2072.345142699614
0.018515555555555556,673.9539888285005,563.7808856888569,8.474297937451208e-05,0.22650993943722605,0.26749006056277397,0.3547192719099446,2199.9462269477444,2084.5577958649137
0.023144444444444447,690.6557006372824,600.53530002572,0.00015170561872710015,0.22653416661715814,0.26746583338284186,0.3547192719099446,2199.9037362832482,2097.2428421294644
0.027773333333333334,704.2888857689755,630.3659562412712,0.00023943823214660502,0.2265659084037988,0.2674340915962012,0.3547192719099446,2199.8480661800645,2110.294431165818
0.03703111111111111,724.638754496929,674.5898125104504,0.00047120099473001284,0.22664976050707542,0.2673502394929246,0.3547192719099446,2199.7010027745155,2137.1692543860445
0.04628888888888889,738.4518184538485,704.3665077743278,0.0007655043125366747,0.22675623987383944,0.2672437601261605,0.3547192719099446,2199.514254706368,2164.6694476694925
0.05554666666666667,747.9111020779434,724.6024187699445,0.001108260961954882,0.2268802497261789,0.2671197502738211,0.3547192719099446,2199.2967609227408,2192.4568153580094
0.06480444444444444,754.4387212847946,738.449715441013,0.0014881305469143836,0.2270176870923658,0.2669823129076342,0.3547192719099446,2199.0557173909597,2220.309071610729
0.07406222222222222,758.9782648379557,747.9805333849729,0.0018965926145290133,0.22716546926020156,0.2668345307397984,0.3547192719099446,2198.7965307035406,2248.081224609447
0.08332,762.1634711830702,754.5778581669833,0.0023274412689410517,0.22732135092757402,0.266678649072426,0.3547192719099447,2198.523138767374,2275.6799080504657
0.09257777777777777,764.4234226472577,759.1740819525628,0.002776227018145119,0.2274837222618291,0.2665162777381709,0.3547192719099447,2198.238364975829,2303.0462455428788
0.10183555555555555,766.0501885274164,762.4020360078378,0.0032397871204660196,0.22765143897844672,0.2663485610215533,0.3547192719099447,2197.9442162240452,2330.1443761068854
0.11109333333333334,767.2432689237057,764.6931328908911,0.0037158846643813143,0.2278236917595972,0.2661763082404028,0.3547192719099447,2197.6421119282504,2356.9537551897915
0.11803666666666668,767.9373995652146,765.9778990049382,0.0040802174461431594,0.2279555078878777,0.2660444921121223,0.35471927190994473,2197.4109271639604,2376.8647632685484
0.12498000000000001,768.5063486242626,766.9920986551439,0.004450219507014736,0.22808937516955366,0.26591062483044636,0.35471927190994473,2197.176144999106,2396.6055581490277
0.13886666666666667,769.3849026621822,768.4593932812196,0.005205824390940718,0.22836275411126544,0.26563724588873455,0.3547192719099448,2196.696681317189,2435.5764170910556
0.15275333333333335,770.0461392829462,769.455491172139,0.005980632790058923,0.22864308091259547,0.26535691908740444,0.3547192719099448,2196.205032181874,2473.8751769605446
0.16664,770.5850526193462,770.1850982265023,0.006773425419957178,0.228929914434677,0.26507008556532297,0.35471927190994484,2195.7019712813762,2511.5198148006293
0.18052666666666667,771.0556522729989,770.7645758835566,0.007583480346950089,0.22922299348085667,0.2647770065191433,0.35471927190994484,2195.1879567135593,2548.5324321036273
0.19441333333333333,771.4886283727991,771.2600368853998,0.008410368512999441,0.22952216281731472,0.2644778371826853,0.3547192719099449,2194.663260734137,2584.9365749584804
0.20829999999999999,771.9014069750332,771.7090170962239,0.00925383392376692,0.22982732982492857,0.2641726701750714,0.35471927190994496,2194.1280457824873,2620.7558245027576
0.22218666666666667,772.3038747315167,772.1328096915433,0.010113723594838626,0.23013843915371565,0.26386156084628437,0.354719271909945,2193.582408933778,2656.0130844912724
0.24996000000000002,773.0978498122405,772.9478317763582,0.011882450684061093,0.2307783671770977,0.2632216328229023,0.35471927190994507,2192.4600757930766,2724.928073427898
0.27773333333333333,773.8921517278947,773.7515701846839,0.013716202371459178,0.23144182119430623,0.26255817880569376,0.3547192719099452,2191.2964817580646,2791.8429384734172
0.33328,775.5046978038279,775.3743384941635,0.017578675611428694,0.23283926960841198,0.26116073039158805,0.3547192719099454,2188.8455769527363,2920.2305717324057
0.38882666666666665,777.1579559791552,777.0357621012876,0.021702078468118044,0.23433112273587725,0.25966887726412274,0.3547192719099456,2186.2291011229017,3042.1450281109232
0.44437333333333334,778.8542952428534,778.739994333394,0.026088575789994708,0.235918163822014,0.258081836177986,0.3547192719099459,2183.445680579429,3158.3626564660517
0.49992000000000003,780.5948613553458,780.4884049006894,0.030741221215809397,0.23760149767774633,0.25639850232225364,0.35471927190994623,2180.49337765766,3269.516416501568
0.5554666666666667,782.3807654965069,782.2821524991725,0.0356638260177838,0.23938250322688567,0.25461749677311435,0.3547192719099466,2177.3697739420295,3376.1307007415367
0.6110133333333333,784.2132118557516,784.1224663929708,0.040860872456275,0.2412628021577231,0.25273719784227694,0.354719271909947,2174.072025246245,3478.646022147587
0.66656,786.0935095694849,786.0106757328433,0.046337448883456686,0.24324423544344692,0.2507557645565531,0.3547192719099475,2170.5969027927804,3577.4369131633043
0.7221066666666668,788.0230737781965,787.9482125843797,0.05209919916835187,0.2453288450440464,0.2486711549559536,0.35471927190994806,2166.940825304859,3672.825185170275
0.7776533333333333,790.0034283181308,789.9366136548906,0.058152282237121336,0.2475188592679295,0.24648114073207053,0.3547192719099487,2163.099884679879,3765.0899405436603
0.8332,792.0362166840379,791.9775251639181,0.064503338842382,0.24981668074901395,0.24418331925098605,0.3547192719099494,2159.069867075701,3854.4752619324263
0.8887466666666667,794.1232454963496,794.0727189814945,0.07115946356117248,0.25222487631555085,0.24177512368444914,0.3547192719099502,2154.84627067914,3941.1962097999403
0.9442933333333334,796.2666706546593,796.224153976952,0.07812818108137896,0.25474616841051906,0.23925383158948096,0.35471927190995106,2150.424320753247,4025.4435765326766
0.9998400000000001,798.4698542120935,798.4342360722906,0.08541742874089117,0.2573834287742665,0.2366165712257335,0.3547192719099521,2145.7989807169583,4107.387758813686
1.0553866666666667,800.7415181921052,800.7070348529438,0.09303556008650811,0.2601396797321276,0.23386032026787246,0.3547192719099533,2140.964949886821,4187.1822185240335
1.08316,801.9112835732221,801.8700463289966,0.09697070416505175,0.2615634205609132,0.23243657943908677,0.3547192719099539,2138.4679323199534,4226.317647972874
1.1109333333333333,803.1157812349533,803.0551753283765,0.10099146431262282,0.263018137407512,0.23098186259248793,0.35471927190995456,2135.9165876880274,4264.967923348116
1.1387066666666668,804.3756822779726,804.2719287579612,0.10509915288602345,0.26450430508451644,0.22949569491548355,0.3547192719099553,2133.310083244409,4303.150346963608
1.16648,805.7259272870424,805.5432743795127,0.10929536901531388,0.2660225021594989,0.22797749784050111,0.35471927190995606,2130.64740427254,4340.88348676986
1.1942533333333332,807.2094708993045,806.9140137765456,0.11358233212551826,0.26757353162364855,0.2264264683763514,0.3547192719099569,2127.927142452125,4378.188034045087
1.2220266666666666,808.8536671591559,808.4376837062593,0.11796323727779297,0.26915854945472095,0.22484145054527907,0.3547192719099578,2125.1472703799286,4415.086479197963
1.2498,810.6509233057001,810.1372292359265,0.12244212033628629,0.27077901583421177,0.2232209841657882,0.3547192719099588,2122.305227127183,4451.601048542375
1.2775733333333334,812.5690826292546,811.9907659768553,0.1270231205160892,0.27243642833613785,0.2215635716638621,0.35471927190995983,2119.3983861845186,4487.751430429609
1.3053466666666669,814.5747537044716,813.9580674462255,0.1317097808829988,0.2741320688468378,0.21986793115316225,0.35471927190996094,2116.424499324842,4523.554031909575
1.33312,816.6450231054052,816.0057199265783,0.13650469038162358,0.2758668740502216,0.21813312594977846,0.3547192719099622,2113.3819237518437,4559.0225766609055
1.3886666666666667,820.9346468119356,820.2703544804243,0.14642052305740183,0.27945443667820347,0.21454556332179653,0.35471927190996516,2107.089902954805,4629.004171970924
1.4164400000000001,823.1420146448065,822.4695683420267,0.15152875102031335,0.2813026009558962,0.21269739904410379,0.3547192719099668,2103.848513388282,4663.538083971672
1.4442133333333336,825.37959741205,824.7021766099299,0.15669844317037138,0.28317300306554666,0.21082699693445336,0.3547192719099687,2100.568122160835,4697.779926364658
1.471986666666667,827.6219726440099,826.946649286105,0.16183125327880069,0.28503006119910157,0.20896993880089842,0.35471927190997077,2097.3111341694603,4731.7374521378515
1.4997600000000002,829.8112215098116,829.1531083588484,0.1667068690734533,0.2867940660573131,0.20720593394268685,0.354719271909973,2094.2173469927907,4765.415488932097
1.5275333333333334,831.8600842387071,831.2404545951878,0.17101299454926755,0.28835202849310093,0.205647971506899,0.3547192719099755,2091.4849258301515,4798.813850714276
1.5553066666666668,833.7093378671796,833.1413706176052,0.17457645604786629,0.2896412940259733,0.20435870597402678,0.35471927190997815,2089.2237567895127,4831.927335544204
1.5830800000000003,835.3691434252013,834.8497225501068,0.17748369176546264,0.2906931361205499,0.20330686387945007,0.35471927190998104,2087.3789911308813,4864.749420989632
1.6108533333333337,836.8869897975367,836.4044771997151,0.17992388948995885,0.2915760031925862,0.20242399680741385,0.35471927190998415,2085.830581094786,4897.275910092188
1.638626666666667,838.3098359484322,837.8525560158574,0.18205847817762916,0.2923483004723374,0.2016516995276626,0.3547192719099875,2084.4760930900866,4929.505832360889
1.6664,839.6724536651593,839.2315891127649,0.18399825081283652,0.2930501130220612,0.2009498869779388,0.35471927190999103,2083.2452242199347,4961.4407894891665
1.6941733333333335,840.998489435721,840.5679903671574,0.18581598273040256,0.2937077710633316,0.20029222893666837,0.3547192719099948,2082.0917954154424,4993.0840955741
1.7219466666666667,842.303837365665,841.8796409517038,0.18756008958324605,0.2943387914495185,0.1996612085504815,0.3547192719099988,2080.985084869877,5024.440128871866
1.74972,843.5993679389754,843.1787155225351,0.1892637278653384,0.29495517024817713,0.19904482975182286,0.3547192719100031,2079.90405336682,5055.513907099668
1.7774933333333334,844.8927226625624,844.4736964497364,0.19095031893319014,0.29556538134002563,0.19843461865997442,0.35471927191000757,2078.8338390517933,5086.31081909597
1.8052666666666668,846.1894316126087,845.7706627363541,0.19263688549963592,0.2961755835672296,0.19782441643277043,0.3547192719100124,2077.76364028396,5116.8364549224625
1.83304,847.4937937295919,847.0742061893145,0.19433694543795307,0.29679066771592527,0.19720933228407472,0.3547192719100175,2076.684879393386,5147.096497178102
1.8422977777777778,847.9317930278131,847.5114016203776,0.19491249313255435,0.29699890170567395,0.19700109829432613,0.3547192719100193,2076.3196697148314,5157.12515328707
1.8469266666666666,848.152405639781,847.7311959592321,0.1952062001995686,0.2971051653480365,0.1968948346519635,0.3547192719100202,2076.1332999933647,5162.128732103369
1.8492411111111111,848.2630831010207,847.8414196020245,0.1953542606620761,0.29715873383787866,0.1968412661621213,0.3547192719100206,2076.0393492844555,5164.627849281006
1.8503983333333334,848.3181860642604,847.8964417684916,0.19542704925924217,0.29718506885778806,0.19681493114221196,0.35471927191002084,2075.993161800043,5165.876741153274
1.8515555555555556,848.3725508881771,847.9510888264025,0.19549631691441088,0.29721012999578167,0.19678987000421838,0.35471927191002106,2075.9492085042243,5167.12518787766
1.8523270370370373,848.4079770794946,847.9870847127729,0.19553867050259882,0.297225453585349,0.19677454641465092,0.3547192719100212,2075.9223333373648,5167.95723732226
1.8530985185185187,848.4424945973168,848.0225793568056,0.19557682288240213,0.29723925717163624,0.19676074282836373,0.3547192719100214,2075.898124017278,5168.789086754051
1.8546414814814818,848.5088890938047,848.0920166200659,0.19564118899703908,0.29726254492516413,0.1967374550748359,0.35471927191002167,2075.857280958993,5170.45218020286
1.8561844444444446,848.5730912122042,848.1599546731062,0.1956962219221793,0.2972824559172103,0.19671754408278969,0.354719271910022,2075.8223602094376,5172.114459763901
1.8577274074074077,848.6363821508311,848.2270034253489,0.19574810279980284,0.2973012264938983,0.19669877350610168,0.3547192719100223,2075.7894395691196,5173.775921653034
1.8608133333333337,848.7619266169191,848.3593602599769,0.19585025310918716,0.2973381846238266,0.19666181537617342,0.3547192719100229,2075.724620819945,5177.09638929443
1.8638992592592594,848.8867063177814,848.4899064821167,0.19595262994714513,0.2973752247121209,0.19662477528787908,0.35471927191002356,2075.6596583286814,5180.4135829723655
1.8700711111111115,849.1346840704891,848.7468017044101,0.19615897846419528,0.29744988190454263,0.19655011809545742,0.3547192719100248,2075.5287213511056,5187.038161569101
1.8885866666666669,849.8721940899801,849.4978417362555,0.19678993690638452,0.2976781635830446,0.19632183641695541,0.3547192719100286,2075.1283511784604,5206.833778930098
1.9071022222222223,850.6086350538704,850.2381305473308,0.19743881878638458,0.29791292998731356,0.19608707001268644,0.3547192719100326,2074.716607816377,5226.513270442089
1.9256177777777779,851.3493168274925,850.9789446545924,0.1981065432524406,0.2981545136665163,0.19584548633348375,0.35471927191003677,2074.2929080259014,5246.078195394041
1.9441333333333333,852.096468623804,851.7247609662239,0.19879418058167117,0.2984033018484648,0.19559669815153524,0.35471927191004105,2073.856572670333,5265.530209691629
1.9719066666666667,853.2315211870236,852.8567532867968,0.19986538961992095,0.29879086683044614,0.19520913316955388,0.35471927191004776,2073.176844626605,5294.500192603207
1.9996800000000001,854.3854452199419,854.0070763429127,0.2009876516431113,0.29919690285634326,0.19480309714365673,0.3547192719100548,2072.4647212759464,5323.225527952866
2.0274533333333333,855.5596441669647,855.1773561499705,0.20216475407472895,0.2996227802214608,0.19437721977853914,0.3547192719100623,2071.7177993358387,5351.711758260633
2.0552266666666665,856.7553919861916,856.3689185075042,0.20340050513623661,0.3000698767458414,0.19393012325415862,0.3547192719100702,2070.933662326552,5379.964327252404
2.083,857.9739462074018,857.5830327446165,0.20469874323791054,0.3005395811718838,0.19346041882811624,0.3547192719100785,2070.1098746122643,5407.98858079807
2.110773333333334,859.2165774937696,858.8209714167102,0.20606334956682157,0.30103329771869325,0.1929667022813068,0.3547192719100873,2069.243973413442,5435.789770965555
2.1663200000000002,861.779278886092,861.373523615632,0.2090074919079846,0.30209849268312977,0.1919015073168702,0.35471927191010644,2067.375788920445,5490.743529022787
2.2218666666666667,864.4542492440632,864.0373025854193,0.2122654071160277,0.30327721112539,0.19072278887460997,0.35471927191012786,2065.3085020960043,5544.8659257592
2.2774133333333335,867.2529195750806,866.8236942175417,0.21587128485281717,0.30458182291467023,0.1894181770853298,0.3547192719101519,2063.020418134394,5598.19609948068
2.33296,870.1876072174277,869.7449514145532,0.2198616251322094,0.30602553380886377,0.18797446619113625,0.354719271910179,2060.4883762125355,5650.772166346937
2.3885066666666668,873.2715837049375,872.8142834048751,0.22427529208026334,0.30762240490508413,0.18637759509491592,0.3547192719102095,2057.6877153768405,5702.631383239856
2.444053333333333,876.5198002183893,876.0464865638493,0.22915601094889526,0.3093882560628223,0.18461174393717772,0.35471927191024416,2054.5906900810282,5753.810325921176
2.4996,879.9485852590881,879.4578117501238,0.2345507323340315,0.3113400740757051,0.18265992592429492,0.35471927191028346,2051.167508159814,5804.345086064234
2.555146666666667,883.5760011836932,883.0661865874762,0.24051096183575457,0.3134964937444619,0.1805035062555381,0.35471927191032826,2047.3854871025635,5854.271436268321
2.6106933333333333,887.4221447441254,886.8915624548956,0.24709335783518477,0.3158780141534668,0.1781219858465332,0.3547192719103796,2043.2086747382393,5903.625020679612
2.66624,891.5093721271285,890.9561403043294,0.25436015381381544,0.31850715146648567,0.17549284853351432,0.35471927191043867,2038.597581255685,5952.441550556632
2.6940133333333334,893.6510556036754,893.0857423505965,0.25827127680987727,0.31992220143279587,0.17407779856720407,0.3547192719104715,2036.1158060951268,5976.659647514738
2.7217866666666666,895.8625406685085,895.284613463391,0.2623795726541844,0.3214085888212594,0.1725914111787406,0.35471927191050684,2033.508916312092,6000.757004963623
2.74956,898.1476925140424,897.556292954805,0.26669588678058237,0.3229697598634829,0.1710302401365171,0.354719749572616,2030.7700300140013,6024.738195071112
2.7773333333333334,900.5276123412032,899.913622536078,0.27128526010292364,0.32460930857437653,0.1693906914256234,0.35474064277875067,2027.8578759535476,6048.60810790323
2.8328800000000003,905.6725310952307,904.9940913275608,0.2815009467016747,0.3281393141628859,0.16586068583711414,0.35490668740198106,2021.3755849915,6096.038794518088
2.8606533333333335,908.4659823305407,907.7497512316672,0.2871856392516093,0.33003841953979024,0.16396158046020978,0.3550643120255281,2017.7684039388862,6119.613395306163
2.888426666666667,911.4257323891878,910.6679235222542,0.29329893057749884,0.33203305100183,0.16196694899816996,0.3552814782220267,2013.8892585944093,6143.1040687736495
2.9162000000000003,914.56747947304,913.7643736822156,0.2998777449797242,0.33412795098346776,0.15987204901653224,0.3555668028223875,2009.7147189070088,6166.518783376713
2.9439733333333336,917.9069526446252,917.0564268776867,0.30696130754776263,0.336327535655012,0.15767246434498805,0.35593006135050353,2005.2198948763355,6189.865970871035
2.971746666666667,921.4531361276534,920.5627871999538,0.3145854306465325,0.33863369189393466,0.15536630810606533,0.35638232389441454,2000.3820620220329,6213.154417618398
2.9995200000000004,925.1724682731666,924.2996662035662,0.3227507232473689,0.3410341401311823,0.15296585986881767,0.3569360903498854,1995.200833925691,6236.392457389456
3.018035555555556,927.6557102909711,926.9036919619107,0.32842785008353703,0.3426557953637511,0.15134420463624884,0.35736842783156614,1991.5984536427063,6251.858844960916
3.036551111111111,929.9811244430875,929.4912047400353,0.3341573516885727,0.34424140807956705,0.14975859192043295,0.3578557570972557,1987.9628393242426,6267.302786395042
3.055066666666667,932.0247772591581,931.8435749986088,0.3398394665010856,0.345753163652893,0.14824683634710703,0.3583997988952475,1984.357293956497,6282.718300887502
3.08284,934.669825516685,934.7713823187529,0.3483920027093301,0.3479271808832384,0.1460728191167616,0.3593201016558126,1978.9303431950998,6305.773296848772
3.1106133333333332,937.1693967221288,937.3491900810785,0.3572749461379253,0.3500971628121224,0.14390283718787758,0.36036398152885046,1973.2937348920805,6328.736307646467
3.1383866666666664,939.7634810499366,939.9383623528727,0.3666579140653395,0.35231877966907366,0.14168122033092637,0.36153713606192056,1967.3398396149391,6351.607977026372
3.16616,942.5425757101686,942.6849012747425,0.3766106756245281,0.3546062614520604,0.13939373854793957,0.36285057783043845,1961.02438585871,6374.394944674393
3.1939333333333333,945.5465267794251,945.6446701539896,0.3871800233641997,0.35696304578094745,0.13703695421905251,0.36431779882645426,1954.3176817458425,6397.105994257507
3.2217066666666665,948.8034542098238,948.8492694034284,0.39841047979896976,0.35939031214424566,0.13460968785575433,0.3659537278717485,1947.191475832705,6419.750945736977
3.24948,952.3404433079269,952.3260835301361,0.4103480175107798,0.3618886421903349,0.13211135780966507,0.367774416264692,1939.6165965458026,6442.340432974181
3.277253333333334,956.1860331547703,956.1032608760477,0.4230403222434744,0.3644582544186709,0.12954174558132905,0.3697968982770381,1931.5627852369907,6464.885904196561
3.305026666666667,960.3706761585299,960.2107636885019,0.4365363326887495,0.3670989823705533,0.12690101762944678,0.37203904645704483,1922.998988209016,6487.399669892448
3.3328,964.9266822113742,964.6804618884183,0.45088546783605143,0.36981020385369223,0.1241897961463078,0.3745193628589806,1913.8938469951179,6509.894956112253
3.360573333333334,969.8879520989118,969.5459302871576,0.4661365471329003,0.37259075218114684,0.1214092478188532,0.3772566771166279,1904.2163835635831,6532.385951431072
3.388346666666667,975.2895294992211,974.8420553261952,0.48233634659778823,0.375438812326232,0.11856118767376794,0.3802697278879307,1893.936916525992,6554.887841195448
3.4438933333333335,987.555288178407,986.8685490906964,0.5177472699172985,0.38132622991963266,0.11267377008036736,0.3871940336542671,1871.4671680687632,6599.990095740134
3.4994400000000003,1001.995431690525,1001.0359747523054,0.557368173401838,0.3874400095675004,0.1065599904324996,0.39541515428919094,1846.3260067691024,6645.342969302522
3.5549866666666667,1018.8278640475652,1017.573779711852,0.6012448200869167,0.39372801863733686,0.10027198136266317,0.40500177955774896,1818.4843940197047,6691.100988991973
3.610533333333333,1038.151953373137,1036.6013207936485,0.649092887654058,0.40011273699907085,0.09388726300092916,0.4159285613632661,1788.1227445168863,6737.425849665698
3.638306666666667,1048.7273519397545,1047.0362049996577,0.6742946923596919,0.40330885728157895,0.09069114271842109,0.42185049053519874,1772.1311193538172,6760.85072153485
3.66608,1059.8684005850027,1058.0471645036137,0.7001687048960301,0.4064859562502263,0.08751404374977363,0.4280346467880239,1755.712949513259,6784.475364434546
3.693853333333333,1071.5187528842132,1069.5819414479631,0.7265353484147274,0.4096251972374344,0.0843748027625656,0.43443489562542137,1738.9821842016377,6808.316210027973
3.721626666666667,1083.6012591449391,1081.5673243280803,0.7531797414660046,0.4127056774239176,0.08129432257608243,0.4409943954468298,1722.0751749080428,6832.387140510408
3.7494000000000005,1096.0160068883665,1093.9070855051918,0.7798506946581204,0.41570420661128094,0.07829579338871905,0.44764545576479337,1705.1513120667944,6856.70230375958
3.7771733333333337,1108.6119969301656,1106.4546418754048,0.8062008303948386,0.41858867683436374,0.07541132316563633,0.4542945028268798,1688.4310216503152,6881.336742744252
3.804946666666667,1121.2341621290554,1119.0559375458959,0.8319037414789752,0.42133113985076914,0.07266886014923087,0.4608513902786516,1672.1214230140981,6906.329455954103
3.83272,1133.7334819780474,1131.5622228180378,0.8566679740843086,0.4239083886385691,0.0700916113614309,0.4672338767254566,1656.4074561017596,6931.677577447074
3.8604933333333333,1145.9539602745158,1143.8173308294092,0.8802057465783142,0.4262980362525684,0.06770196374743155,0.47336022930090954,1641.4717306926348,6957.372738604683
3.8882666666666665,1157.7370254910688,1155.6618264447739,0.9022414070023329,0.4284792283689013,0.0655207716310987,0.47915157105087347,1627.4891597681483,6983.400876090068
3.9160399999999997,1168.9262086897368,1166.9378242514022,0.9225189329293817,0.4304333633125389,0.06356663668746111,0.48453387436537376,1614.6222005306101,7009.742216798099
3.9438133333333334,1179.3715384953887,1177.493618828748,0.9408079786337049,0.4321447886418693,0.06185521135813072,0.4894394522687232,1603.0170172149726,7036.371442851154
3.971586666666667,1188.9332427548495,1187.1876763031835,0.9569080354164542,0.4336014527435546,0.06039854725644536,0.4938078120365225,1592.800841183885,7063.258021835906
3.9993600000000002,1197.4843185972113,1195.891565706752,0.9706502767673145,0.43479551216252454,0.05920448783747544,0.4975857154478174,1584.080800093563,7090.366670604183
4.0271333333333335,1204.9113822920294,1203.491322757002,0.9818964833873411,0.4357239434300216,0.05827605656997838,0.5007261780287572,1576.9446000128726,7117.657901154212
4.054906666666667,1211.112740816726,1209.8864356714714,0.9905337663394105,0.43638932634929417,0.05761067365070584,0.5031857765950908,1571.463873810515,7145.088567814559
4.08268,1215.9910887537717,1214.9846865963407,0.9964615346640301,0.43680134452988556,0.057198655470114435,0.5049184335823957,1567.7024507613298,7172.6122751376415
4.110453333333333,1219.432574087581,1218.6881965774555,0.9995593455085259,0.4369814526096296,0.05701854739037036,0.5058591179542455,1565.7367570171755,7200.17933652392
4.116625185185185,1219.9861476484396,1219.3095938564593,0.9998455587347561,0.43699428335247686,0.05700571664752316,0.5059498395713092,1565.5551424588514,7206.305901868125
4.119711111111112,1220.2325171201605,1219.5917517231153,0.9999323658210892,0.4369977104908791,0.05700228950912089,0.5059778193625069,1565.5000596422694,7209.368796069102
4.122797037037038,1220.458629431383,1219.8548645924382,0.9999824432572033,0.43699947351497864,0.057000526485021304,0.5059941744273446,1565.4682833628792,7212.431324604353
4.12434,1220.564370959605,1219.9793973442747,0.9999945852709442,0.4369998503355401,0.05700014966445984,0.5059981906049457,1565.4605787347884,7213.962427174289
4.125111481481482,1220.615559191842,1220.0399640828234,0.9999978220351828,0.43699994273332,0.057000057266679977,0.505999269273157,1565.4585248691606,7214.7279339535435
4.125497222222222,1220.6407704786436,1220.069835896064,0.9999988281609485,0.43699997006822566,0.05700002993177434,0.5059996059560108,1565.4578864392427,7215.110675750996
4.125882962962963,1220.6657489721665,1220.0994407463147,0.9999994823735632,0.4369999872288884,0.057000012771111636,0.5059998254904199,1565.4574713133013,7215.493409659879
4.126140123456791,1220.6822830237002,1220.1190324790236,0.999999750556718,0.4369999940367122,0.05700000596328779,0.50599991571165,1565.4573011395958,7215.748561162599
4.126397283950618,1220.6987321084177,1220.138511261895,0.9999999083607474,0.43699999793429056,0.05700000206570947,0.5059999689077982,1565.457201006176,7216.003709081825
4.126654444444444,1220.7151064342852,1220.1578800588516,0.9999999810913609,0.43699999967917985,0.05700000032082015,0.5059999934769501,1565.4571548554848,7216.258853391588
4.126911604938272,1220.7314184536979,1220.1771423455957,0.9999999995784252,0.43700000010937684,0.056999999890623126,0.5059999997353999,1565.4571431246502,7216.51399406964
4.1270401851851855,1220.7395557654202,1220.1867348031412,1.000000000027639,0.4370000001192326,0.05699999988076734,0.5059999998880702,1565.4571428396048,7216.64156304104
4.127168765432099,1220.7476828312792,1220.196302122845,1.0000000000242175,0.4370000001187712,0.05699999988122878,0.5059999998872938,1565.4571428417757,7216.769131098263
4.127425925925927,1220.7639071610533,1220.2153624613688,1.000000000007454,0.4370000001176284,0.05699999988237159,0.5059999998823715,1565.457142852413,7217.024264463779
4.127940246913581,1220.7962394955,1220.2531930378075,1.000000000007454,0.4370000001160975,0.05699999988390249,0.5059999998839025,1565.457142852413,7217.534520155369
4.128454567901235,1220.82842199681,1220.290649952208,1.000000000007454,0.4370000001145656,0.056999999885434444,0.5059999998854344,1565.457142852413,7218.044761046938
4.128968888888889,1220.8604607801374,1220.3277484122568,1.000000000007454,0.4370000001130326,0.056999999886967447,0.5059999998869674,1565.457142852413,7218.554987045156
4.133597777777778,1221.1432355980219,1220.647725055068,1.000000000007454,0.4370000000991888,0.05699999990081119,0.5059999999008112,1565.457142852413,7223.146337281651
4.138226666666666,1221.4182515578195,1220.9483214686486,1.000000000007454,0.43700000008526213,0.05699999991473785,0.5059999999147379,1565.457142852413,7227.736422675642
4.142855555555555,1221.6879430070137,1221.2355912375408,1.000000000007454,0.4370000000712538,0.05699999992874624,0.5059999999287462,1565.457142852413,7232.325207525056
4.147484444444444,1221.953986069411,1221.5137023368304,1.000000000007454,0.43700000005716433,0.05699999994283567,0.5059999999428356,1565.457142852413,7236.912668235264
4.156742222222222,1222.4793814236593,1222.0530275828232,1.000000000007454,0.4370000000287435,0.05699999997125651,0.5059999999712566,1565.457142852413,7246.083561950612
4.166,1223.0,1222.5801285420323,1.000000000007454,0.4369999999999999,0.057,0.506,1565.457142852413,7255.249040198206
