z,T,t,fs,x,y,w,rhob,p
0.0,556.2445665381176,298.0,0.0,0.226478988748797,0.26752101125120303,0.3547195624507765,2200.0,2040.0
0.0022543290043290044,576.8912428039774,345.5320413039868,5.029706797483391e-07,0.2264791707243176,0.2675208292756824,0.3547195624507765,2199.999680843548,2044.6815923060353
0.004508658008658009,595.2917758864508,387.54649242159314,2.08223915010655e-06,0.2264797421059382,0.2675202578940618,0.3547195624507765,2199.9986787300204,2049.6178972880143
0.009017316017316018,626.4725710076114,458.03748280083624,1.1987258415641904e-05,0.22648332575625868,0.2675166742437413,0.3547195624507765,2199.9923935707957,2060.15128491221
0.013525974025974026,651.606773270521,514.2458699416388,3.624728226390565e-05,0.2264921030680345,0.26750789693196547,0.3547195624507765,2199.9769995459487,2071.4169474937007
0.018034632034632035,672.0132154709491,559.495134856587,7.900618400503261e-05,0.22650757330063281,0.2674924266993672,0.3547195624507765,2199.9498671902693,2083.264941439374
0.022543290043290046,688.6747566125622,596.1878933650929,0.00014181378957137821,0.2265302971833213,0.2674697028166787,0.3547195624507765,2199.910013072783,2095.5726840579764
0.027051948051948053,702.339902398329,626.1109937556417,0.0002244483592647831,0.22656019449035592,0.2674398055096441,0.3547195624507765,2199.857577896831,2108.239990741633
0.03156060606060606,713.588526957764,650.6229198007205,0.0003257068756143647,0.2265968299682728,0.2674031700317272,0.3547195624507765,2199.7933250285564,2121.1849811327356
0.03606926406926407,722.876041179109,670.7745739957112,0.00044393991876754964,0.22663960685457962,0.26736039314542037,0.3547195624507765,2199.7183010955455,2134.3407342315045
0.04057792207792208,730.564053546584,687.3902526236433,0.0005773683431936593,0.2266878814518458,0.2673121185481542,0.3547195624507765,2199.633635041886,2147.652563678758
0.04508658008658009,736.9422484482167,701.1237465376273,0.0007242555601296028,0.2267410254597409,0.2672589745402591,0.3547195624507765,2199.540428807574,2161.0757987734673
0.049595238095238095,742.2443687572388,712.4983020339072,0.0008829929055249151,0.22679845686128086,0.26720154313871913,0.3547195624507765,2199.4397031588915,2174.5739756906373
0.054103896103896106,746.6601284879646,721.9357650811438,0.001052135224840645,0.2268596527974598,0.2671403472025402,0.3547195624507765,2199.332375108329,2188.117361065971
0.058612554112554116,750.3442460461041,729.7782700642332,0.0012304090379577444,0.22692415252132558,0.2670758474786744,0.3547195624507765,2199.2192527336,2201.681745117833
0.06312121212121212,753.4233957087847,736.3046617954683,0.0014167063205507051,0.226991555148072,0.267008444851928,0.3547195624507765,2199.1010391236255,2215.247453718937
0.06762987012987012,756.0016248971212,741.7431154460547,0.0016100713523408761,0.22706151489671764,0.2669384851032824,0.3547195624507765,2198.978340723882,2228.798538667274
0.07213852813852814,758.1646214688162,746.2809586215046,0.0018096848120462083,0.22713373533563558,0.2668662646643644,0.3547195624507765,2198.851677428836,2242.3221132694193
0.07664718614718616,759.9831060548385,750.0723993446148,0.0020148474038988724,0.22720796345860392,0.2667920365413961,0.3547195624507765,2198.7214929716233,2255.8078066323355
0.08115584415584416,761.5155498814684,753.2446630114971,0.0022249642099391592,0.2272839840234429,0.2667160159765571,0.35471956245077657,2198.5881648531845,2269.2473150886112
0.08566450216450217,762.8103665753827,755.9029044514409,0.0024395303393560767,0.22736161435992566,0.2666383856400743,0.35471956245077657,2198.4520134483782,2282.6340332160717
0.09017316017316018,763.907689613612,758.1341659566813,0.002658118094966878,0.22744069972659184,0.2665593002734082,0.35471956245077657,2198.313310149397,2295.962750161854
0.09468181818181819,764.8408205166618,760.010584671554,0.0028803656836572282,0.2275211092261685,0.2664788907738315,0.35471956245077657,2198.1722845294757,2309.2293996049025
0.09919047619047619,765.6374134266454,761.5920041328767,0.003105967395953146,0.22760273225252503,0.26639726774747496,0.35471956245077657,2198.0291305743795,2322.4308538159216
0.10369913419913421,766.3204472538298,762.9281092055015,0.0033346651311237066,0.2276854754244431,0.26631452457555693,0.35471956245077657,2197.884012060082,2335.5647539996144
0.10820779220779221,766.9090256857487,764.0601772766944,0.0035662411255930416,0.22776925995474542,0.2662307400452546,0.35471956245077657,2197.737067166906,2348.629370508998
0.11271645021645021,767.4190370500048,765.0225187320998,0.0038005117406076793,0.22785401940266495,0.2661459805973351,0.3547195624507766,2197.58841242151,2361.62348766775
0.11722510822510823,767.8636996187817,765.8436646277095,0.004037322172206129,0.22793969775990416,0.26606030224009586,0.3547195624507766,2197.438146053642,2374.5463088734678
0.12173376623376624,768.2540129540986,766.5473478361854,0.0042765419579773355,0.2280262478249737,0.26597375217502633,0.3547195624507766,2197.2863508472938,2387.3973784217783
0.12624242424242424,768.5991319694061,767.1533148907719,0.004518061168217304,0.22811362982514738,0.2658863701748526,0.3547195624507766,2197.133096557573,2400.1765171201837
0.13075108225108223,768.906677271916,767.677998637111,0.004761787182398776,0.2282018102501843,0.26579818974981567,0.3547195624507766,2196.9784419561743,2412.8837692768625
0.13525974025974025,769.1829928646904,768.135076168863,0.00500764196454653,0.22829076086655556,0.26570923913344446,0.3547195624507766,2196.822436560268,2425.519359073978
0.13976839826839826,769.4333602891769,768.5359320263686,0.005255559762758502,0.22838045788512767,0.2656195421148723,0.3547195624507767,2196.6651220922545,2438.083654684086
0.14427705627705628,769.6621766729918,768.8900430252401,0.0055054851685685,0.22847088125903736,0.26552911874096263,0.3547195624507767,2196.506533711179,2450.5771387755954
0.1487857142857143,769.8731028347045,769.2052981630613,0.00575737148108519,0.22856201409183446,0.26543798590816553,0.3547195624507767,2196.3467010507593,2463.000384289931
0.15329437229437232,770.0691865258815,769.4882646823262,0.006011179328915835,0.22865384213889203,0.265346157861108,0.3547195624507767,2196.1856490938317,2475.354034568173
0.15780303030303033,770.2529650130991,769.7444094348713,0.006266875509881926,0.2287463533876138,0.2652536466123862,0.3547195624507767,2196.023398908601,2487.6387870658345
0.16231168831168832,770.4265504817052,769.9782831109272,0.006524432014563877,0.22883953770415116,0.26516046229584883,0.35471956245077674,2195.8599682682443,2499.8553800271757
0.1668203463203463,770.591701149313,770.1936735967618,0.006783825204883543,0.2289333865362132,0.2650666134637868,0.35471956245077674,2195.6953721721356,2512.0045816000084
0.17132900432900433,770.7498804868395,770.393733655289,0.00704503512335249,0.2290278926631517,0.2649721073368483,0.35471956245077674,2195.529623284156,2524.0871809623604
0.17583766233766235,770.9023065395314,770.5810872414069,0.00730804491237968,0.2291230499858658,0.2648769500141342,0.35471956245077674,2195.36273230117,2536.1039811070464
0.18034632034632037,771.0499930046752,770.75791803416,0.00757284032623356,0.22921885335022918,0.2647811466497708,0.35471956245077674,2195.1947082627053,2548.05579299184
0.18485497835497838,771.193783444236,770.9260431636337,0.007839409320970147,0.22931529839872544,0.26468470160127455,0.3547195624507768,2195.025558811159,2559.943430813898
0.1893636363636364,771.334379779514,771.0869746095617,0.008107741709940405,0.22941238144581025,0.2645876185541898,0.3547195624507768,2194.855290410398,2571.7677082091313
0.19387229437229442,771.4723660228277,771.2419703328524,0.008377828874437861,0.22951009937322306,0.26448990062677696,0.3547195624507768,2194.6839085293605,2583.5294352119986
0.1983809523809524,771.608228041528,771.3920768558461,0.008649663520693763,0.2296084495420678,0.2643915504579322,0.3547195624507768,2194.5114177962546,2595.229415839905
0.2028896103896104,771.7423700167759,771.5381647199816,0.008923239475817416,0.22970742971898367,0.2642925702810163,0.35471956245077685,2194.337822128045,2606.8684461901153
0.20739826839826841,771.8751281489198,771.6809580107006,0.009198551516452587,0.22980703801415284,0.2641929619858472,0.35471956245077685,2194.1631248391745,2618.4473129566945
0.21190692640692643,772.0067820692294,771.8210589406533,0.009475595224910233,0.22990727282924894,0.26409272717075105,0.35471956245077685,2193.987328732856,2629.9667922911835
0.21641558441558442,772.13756434104,771.9589683167919,0.009754366868371691,0.2300081328137329,0.2639918671862671,0.35471956245077685,2193.810436177724,2641.427648944099
0.2209242424242424,772.2676683694767,772.0951025791309,0.01003486329745872,0.23010961682815498,0.26389038317184504,0.35471956245077685,2193.6324491721925,2652.8306356353996
0.22543290043290043,772.3972549856908,772.229807984178,0.010317081861058246,0.2302117239133387,0.26378827608666133,0.3547195624507769,2193.4533693985077,2664.176492611189
0.22994155844155845,772.5264579271852,772.3633724104153,0.01060102033478723,0.230314453264499,0.263685546735501,0.3547195624507769,2193.2731982681344,2675.4659473514776
0.23445021645021646,772.655388398838,772.4960351835362,0.010886676860901844,0.23041780420950153,0.26358219579049846,0.3547195624507769,2193.0919369598923,2686.699714400029
0.23895887445887448,772.7841388684308,772.6279952527686,0.011174049897807119,0.23052177619059497,0.26347822380940505,0.3547195624507769,2192.9095864519886,2697.878495292496
0.24346753246753247,772.9127862248115,772.7594179942896,0.011463138177619321,0.23062636874905715,0.2633736312509429,0.35471956245077696,2192.72614754895,2709.0029785632614
0.24797619047619046,773.0413944054312,772.8904408716473,0.011753940670482015,0.2307315815122845,0.2632684184877155,0.35471956245077696,2192.541620904265,2720.073839814919
0.2524848484848485,773.1700165821601,773.0211781446958,0.012046456554545806,0.23083741418293077,0.2631625858170692,0.35471956245077696,2192.3560070394315,2731.091741837231
0.2569935064935065,773.2986969794327,773.15172478654,0.012340685190697347,0.23094386652976379,0.2630561334702362,0.354719562450777,2192.169306359994,2742.0573347647533
0.2615021645021645,773.4274723863917,773.282159741324,0.012636626101270577,0.2310509383799633,0.26294906162003673,0.354719562450777,2191.9815191690536,2752.971256264324
0.26601082251082253,773.5563734143831,773.4125486334744,0.012934278952096992,0.2311586296126266,0.2628413703873734,0.354719562450777,2191.7926456786536,2763.8341317451964
0.27051948051948055,773.6854255425626,773.5429460204982,0.013233643537355608,0.23126694015328741,0.2627330598467126,0.354719562450777,2191.602686019396,2774.646574585965
0.27502813852813857,773.8146499872119,773.6733972660163,0.013534719766770486,0.2313758699692838,0.26262413003071616,0.35471956245077707,2191.4116402485656,2785.4091863735025
0.2795367965367966,773.9440644244005,773.8039400968665,0.013837507654776841,0.2314854190658384,0.26251458093416163,0.35471956245077707,2191.219508357002,2796.122557150055
0.2840454545454546,774.0736835906607,773.9346058974091,0.014142007311338101,0.2315955874827361,0.2624044125172639,0.35471956245077707,2191.026290274928,2806.78726566538
0.2885541125541126,774.2035197822064,774.0654207852608,0.014448218934147768,0.23170637529150276,0.2622936247084972,0.3547195624507771,2190.8319858769005,2817.4038796314107
0.29306277056277064,774.3335832697799,774.1964065052567,0.014756142801993069,0.231817782593004,0.262182217406996,0.3547195624507771,2190.6365949860156,2827.9729559774546
0.2975714285714286,774.4638826433447,774.3275811722683,0.015065779269093551,0.23192980951539693,0.26207019048460306,0.3547195624507771,2190.4401173775054,2838.495041104326
0.30208008658008656,774.5944250984511,774.4589598883532,0.015377128760258159,0.23204245621237807,0.2619575437876219,0.3547195624507771,2190.2425527818123,2848.9706711361623
0.3065887445887446,774.7252166741143,774.5905552554361,0.015690191766729627,0.23215572286167974,0.26184427713832026,0.3547195624507772,2190.04390088722,2859.4003721689437
0.3110974025974026,774.8562624503904,774.7223778011514,0.01600496884260641,0.23226960966377558,0.2617303903362244,0.3547195624507772,2189.84416134213,2869.7846605149657
0.3156060606060606,774.9875667124567,774.8544363325126,0.016321460601750225,0.23238411684076163,0.2616158831592384,0.3547195624507772,2189.6433337570206,2880.1240429426884
0.32011471861471863,775.1191330868575,774.986738229604,0.016639667715102113,0.23249924463538532,0.26150075536461465,0.35471956245077724,2189.4414177061512,2890.4190169115523
0.32462337662337665,775.2509646546217,775.1192896894366,0.01695959090834255,0.23261499331019894,0.2613850066898011,0.35471956245077724,2189.238412729046,2900.6700708014478
0.32913203463203466,775.3830640451678,775.2520959283967,0.017281230959841545,0.23273136314681783,0.26126863685318213,0.35471956245077724,2189.0343183317964,2910.877684136651
0.3336406926406926,775.5154335142449,775.3851613502995,0.01760458869885349,0.2328483544452675,0.2611516455547325,0.3547195624507773,2188.829133988205,2921.0423278040903
0.33814935064935064,775.6480750086197,775.5184896858725,0.01792966500391886,0.2329659675234051,0.2610340324765949,0.3547195624507773,2188.622859140799,2931.164464265895
0.34265800865800866,775.7809902197513,775.6520841085094,0.018256460801440923,0.2330842027164047,0.26091579728359526,0.3547195624507773,2188.4154932017373,2941.2445477662036
0.3471666666666667,775.9141806283257,775.7859473303218,0.018584977064410965,0.23320306037629598,0.26079693962370404,0.35471956245077735,2188.2070355536143,2951.283024532278
0.3516753246753247,776.0476475411978,775.9200816818294,0.018915214811259563,0.23332254087154858,0.2606774591284514,0.35471956245077735,2187.9974855501923,2961.2803329699686
0.3561839826839827,776.181392122034,776.054489178067,0.01924717510481536,0.23344264458669542,0.2605573554133046,0.35471956245077735,2187.786842517062,2971.2369038536262
0.36069264069264073,776.3154154167224,776.1891715734183,0.019580859051355506,0.2335633719219892,0.2604366280780108,0.3547195624507774,2187.575105752241,2981.1531605105606
0.36520129870129875,776.449718374443,776.3241304070899,0.019916267799734693,0.2336847232930872,0.2603152767069128,0.3547195624507774,2187.362274526734,2991.0295190001652
0.36970995670995677,776.5843018651351,776.4593670408195,0.02025340254058168,0.23380669913076063,0.26019330086923936,0.3547195624507774,2187.1483480850347,3000.8663882878323
0.37421861471861473,776.7191666939756,776.5948826901397,0.020592264505554014,0.23392929988062502,0.260070700119375,0.35471956245077746,2186.9333256456043,3010.664170413793
0.37872727272727275,776.8543136133776,776.7306784502955,0.02093285496664318,0.23405252600288867,0.2599474739971113,0.35471956245077746,2186.7172064013093,3020.42326065703
0.38323593073593076,776.989743332932,776.8667553177249,0.021275175235523525,0.2341763779721173,0.25982362202788273,0.3547195624507775,2186.4999895198357,3030.144047694388
0.3877445887445888,777.1254565276429,777.0031142078618,0.021619226662939483,0.2343008562770122,0.2596991437229878,0.3547195624507775,2186.2816741440793,3039.82691375504
0.3922532467532468,777.2614538447478,777.1397559698861,0.02196501063812641,0.23442596142020067,0.2595740385797993,0.3547195624507775,2186.06225939251,3049.472234770443
0.3967619047619048,777.3977359093661,777.2766813989444,0.02231252858826105,0.2345516939180374,0.2594483060819626,0.35471956245077757,2185.841744359523,3059.0803805199234
0.40127056277056283,777.534303329173,777.4138912462727,0.0226617819779383,0.23467805430041494,0.25932194569958505,0.35471956245077757,2185.6201281157705,3068.6517147720397
0.4057792207792208,777.6711566982688,777.5513862275783,0.02301277230867148,0.23480504311058295,0.25919495688941707,0.3547195624507776,2185.3974097084774,3078.1865954218442
0.41028787878787876,777.8082966003799,777.6891670299821,0.023365501118413644,0.23493266090497508,0.25906733909502494,0.3547195624507776,2185.1735881617474,3087.6853746241927
0.4147965367965368,777.9457236115051,777.8272343177642,0.02371996998109788,0.23506090825304263,0.2589390917469574,0.3547195624507776,2184.9486624768515,3097.1483989232224
0.4193051948051948,778.0834383021046,777.96558873712,0.024076180506194894,0.23518978573709443,0.2588102142629056,0.3547195624507777,2184.722631632512,3106.576009378122
0.4238138528138528,778.221441238908,778.1042309200959,0.024434134338286336,0.23531929395214243,0.2586807060478576,0.3547195624507777,2184.4954945851714,3115.96854168533
0.4283225108225108,778.3597329864082,778.2431614878446,0.024793833156652595,0.23544943350575281,0.2585505664942472,0.35471956245077774,2184.2672502692544,3125.3263262972628
0.43283116883116884,778.4983141080944,778.3823810533182,0.025155278674873924,0.23558020501790133,0.25841979498209866,0.35471956245077774,2184.0378975974204,3134.6496885377046
0.43733982683982686,778.6371851674697,778.5218902234944,0.02551847264044396,0.23571160912083372,0.2582883908791663,0.35471956245077774,2183.8074354608107,3143.9389487139533
0.4418484848484848,778.7763467288898,778.6616896012174,0.02588341683439476,0.23584364645893,0.25815635354107,0.3547195624507778,2183.5758627292835,3153.1944222258467
0.44635714285714284,778.9157993582544,778.8017797867177,0.026250113070932696,0.2359763176885726,0.2580236823114274,0.3547195624507778,2183.3431782516473,3162.4164196717597
0.45086580086580086,779.0555436235755,778.9421613788687,0.026618563197084423,0.2361096234780185,0.2578903765219815,0.35471956245077785,2183.1093808558844,3171.605246951681
0.4553744588744589,779.1955800954463,779.0828349762238,0.026988769092352514,0.23624356450727443,0.2577564354927256,0.35471956245077785,2182.87446934937,3180.7612053674566
0.4598831168831169,779.3359093474245,779.2238011778719,0.027360732668380128,0.23637814146797564,0.2576218585320244,0.3547195624507779,2182.638442519084,3189.8845917203084
0.4643917748917749,779.4765319563484,779.3650605841437,0.02773445586862433,0.23651335506326773,0.2574866449367323,0.3547195624507779,2182.4012991318205,3198.9756984057
0.46890043290043293,779.6174485025944,779.506613797194,0.028109940668037615,0.23664920600769135,0.25735079399230865,0.35471956245077796,2182.1630379343874,3208.034813505645
0.47340909090909095,779.7586595702888,779.6484614214801,0.028487189072757307,0.23678569502706992,0.2572143049729301,0.35471956245077796,2181.9236576538037,3217.062220878547
0.47791774891774896,779.9001657474798,779.7906040641576,0.028866203119802456,0.23692282285839988,0.2570771771416001,0.354719562450778,2181.6831569974947,3226.058200246636
0.4824264069264069,780.0419676262774,779.9330423354052,0.02924698487677796,0.23706059024974369,0.2569394097502563,0.354719562450778,2181.441534653475,3235.0230272810904
0.48693506493506494,780.1840658029678,780.0757768486907,0.029629536441585645,0.23719899796012522,0.2568010020398748,0.35471956245077807,2181.1987892905377,3243.9569736849203
0.49144372294372296,780.3264608781052,780.2188082209909,0.030013859942141976,0.23733804675942777,0.2566619532405722,0.35471956245077807,2180.9549195584277,3252.86030727367
0.4959523809523809,780.4691534565859,780.3621370729711,0.030399957536102248,0.23747773742829412,0.25652226257170585,0.3547195624507781,2180.70992408802,3261.733292054025
0.5004610389610389,780.612144147708,780.5057640291325,0.030787831410590976,0.23761807075802913,0.25638192924197084,0.3547195624507781,2180.463801491491,3270.576188300379
0.504969696969697,780.7554335652186,780.6496897179321,0.03117748378193829,0.23775904755050425,0.2562409524494958,0.3547195624507782,2180.2165503624838,3279.3892526294303
0.509478354978355,780.8990223273516,780.7939147718814,0.03156891689542212,0.23790066861806425,0.25609933138193575,0.3547195624507782,2179.9681692762733,3288.172738072866
0.513987012987013,781.0429110568568,780.9384398276267,0.03196213302501604,0.23804293478343608,0.2559570652165639,0.35471956245077824,2179.718656789926,3296.9268941481973
0.518495670995671,781.1871003810237,781.0832655260136,0.03235713447314255,0.23818584687963953,0.2558141531203605,0.35471956245077824,2179.4680114424564,3305.6519669277977
0.523004329004329,781.3315909316976,781.2283925121407,0.03275392357043162,0.23832940574989994,0.2556705942501001,0.3547195624507783,2179.2162317549796,3314.348199106206
0.5275129870129871,781.4763833452942,781.3738214354014,0.03315250267548435,0.23847361224756256,0.25552638775243747,0.3547195624507783,2178.963316230862,3323.015830065741
0.5320216450216451,781.6214782628085,781.5195529495193,0.033552874174641624,0.238618467236009,0.255381532763991,0.35471956245077835,2178.709263355868,3331.655095940484
0.536530303030303,781.7668763298221,781.6655877125753,0.0339550404817576,0.23876397158857515,0.25523602841142484,0.35471956245077835,2178.454071598304,3340.2662296786752
0.5410389610389611,781.9125781965078,781.8119263870304,0.03435900403797786,0.23891012618847107,0.2550898738115289,0.3547195624507784,2178.1977394091587,3348.8494611035767
0.5455476190476192,782.0585845176323,781.9585696397431,0.0347647673115221,0.23905693192870223,0.2549430680712978,0.3547195624507784,2177.94026522224,3357.4050169728375
0.5500562770562771,782.2048959525584,782.1055181419835,0.03517233279747124,0.23920438971199248,0.2547956102880075,0.35471956245077846,2177.6816474543134,3365.933121036423
0.5545649350649351,782.3515131652448,782.2527725694441,0.03558170301755893,0.23935250045070872,0.2546474995492913,0.3547195624507785,2177.4218845052296,3374.4339940931286
0.5590735930735932,782.4984368242464,782.4003336022499,0.03599288051996711,0.2395012650667869,0.2544987349332131,0.3547195624507785,2177.1609747580583,3382.9078540457435
0.5635822510822512,782.6456676027134,782.5482019249638,0.03640586787912564,0.2396506844916594,0.2543493155083406,0.35471956245077857,2176.8989165792145,3391.3549159548816
0.5680909090909092,782.79320617839,782.6963782265929,0.03682066769551602,0.23980075966618428,0.25419924033381575,0.35471956245077857,2176.6357083185794,3399.7753920915375
0.5725995670995672,782.9410532336134,782.8448632005923,0.0372372825954788,0.2399514915405753,0.2540485084594247,0.3547195624507786,2176.371348309629,3408.1694919883917
0.5771082251082252,783.089209455312,782.993657544869,0.03765571523102483,0.24010288107433383,0.2538971189256662,0.3547195624507787,2176.105834869548,3416.5374224899065
0.5816168831168833,783.2376755350041,783.1427619617845,0.03807596827965007,0.24025492923618183,0.2537450707638182,0.3547195624507787,2175.83916629935,3424.879387801247
0.5861255411255413,783.3864521687971,783.2921771581559,0.038498044444154,0.240407637003996,0.25359236299600396,0.35471956245077874,2175.571340883994,3433.1955895360597
0.5906341991341992,783.5355400573853,783.4419038452598,0.03892194645246147,0.2405610053647436,0.25343899463525643,0.35471956245077874,2175.3023568924937,3441.4862267631424
0.5951428571428572,783.6849399060504,783.5919427388321,0.03934767705744789,0.24071503531441882,0.25328496468558115,0.3547195624507788,2175.0322125780326,3449.751496052036
0.5996515151515152,783.8346524246599,783.7422945590704,0.03977523903676766,0.24086972785798114,0.25313027214201883,0.35471956245077885,2174.7609061780695,3457.9915915175684
0.6041601731601731,783.9846783276676,783.8929600306354,0.04020463519268582,0.2410250840092941,0.25297491599070593,0.35471956245077885,2174.4884359144467,3466.20670486338
0.6086688311688311,784.1350183341136,784.0439398826525,0.04063586835191275,0.24118110479106555,0.2528188952089344,0.3547195624507789,2174.2147999934964,3474.397025424459
0.6131774891774892,784.2856731676253,784.1952348487134,0.041068941365441924,0.24133779123478913,0.2526622087652109,0.35471956245077896,2173.93999660614,3482.5627402087184
0.6176861471861472,784.4366435564183,784.3468456668782,0.041503857108390524,0.24149514438068637,0.25250485561931363,0.35471956245077896,2173.6640239279927,3490.7040339376267
0.6221948051948052,784.5879302332986,784.4987730796769,0.04194061847984297,0.2416531652776502,0.2523468347223498,0.354719562450779,2173.3868801194617,3498.821089085943
0.6267034632034632,784.7395339356647,784.6510178341126,0.04237922840269722,0.24181185498318936,0.25218814501681064,0.35471956245077907,2173.1085633258426,3506.914085920553
0.6312121212121212,784.8914554055112,784.8035806816636,0.042819689823513724,0.2419712145633737,0.2520287854366263,0.35471956245077907,2172.829071677417,3514.9832025384535
0.6357207792207793,785.043695389432,784.9564623782861,0.04326200571236699,0.24213124509278042,0.25186875490721955,0.3547195624507791,2172.548403289544,3523.028614903892
0.6402294372294373,785.1962546386251,785.1096636844186,0.043706179062699815,0.24229194765444154,0.2517080523455585,0.3547195624507792,2172.266556262757,3531.0504968846963
0.6447380952380952,785.3491339088981,785.2631853649846,0.044152212891179904,0.24245332333979175,0.25154667666020825,0.3547195624507792,2171.983528682851,3539.0490202878073
0.6492467532467533,785.5023339606743,785.4170281893968,0.04460011023755896,0.24261537324861765,0.25138462675138235,0.35471956245077924,2171.699318620973,3547.02435489404
0.6537554112554114,785.6558555589999,785.5711929315626,0.045049874164534064,0.24277809848900747,0.25122190151099255,0.3547195624507793,2171.41392413371,3554.9766684920924
0.6582640692640693,785.809699473552,785.7256803698883,0.04550150775761144,0.24294150017730182,0.2510584998226982,0.35471956245077935,2171.1273432631774,3562.9061269118233
0.6627727272727273,785.9638664786485,785.8804912872854,0.04595501412497247,0.24310557943804526,0.25089442056195477,0.35471956245077935,2170.8395740370997,3570.8128940568163
0.6672813852813854,786.1183573532581,786.0356264711762,0.04641039639734172,0.2432703374039384,0.2507296625960616,0.3547195624507794,2170.5506144688984,3578.697131936249
0.6717900432900434,786.2731728810126,786.1910867135012,0.04686765772785723,0.24343577521579127,0.25056422478420876,0.35471956245077946,2170.260462557772,3586.5590006960883
0.6762987012987014,786.4283138502196,786.3468728107263,0.04732680129194283,0.2436018940224767,0.2503981059775233,0.3547195624507795,2169.9691162887784,3594.3986586496235
0.6808073593073594,786.5837810538783,786.5029855638506,0.047787830287182434,0.24376869498088527,0.2502313050191148,0.3547195624507795,2169.6765736329135,3602.21626230736
0.6853160173160173,786.7395752896953,786.6594257784166,0.0482507479331963,0.24393617925588018,0.2500638207441198,0.35471956245077957,2169.38283254719,3610.011966406291
0.6898246753246753,786.8956973601037,786.8161942645179,0.04871555747151917,0.2441043480202534,0.24989565197974659,0.3547195624507796,2169.0878909747153,3617.7859239385516
0.6943333333333334,787.0521480722838,786.9732918368122,0.04918226216548026,0.24427320245468226,0.24972679754531774,0.3547195624507797,2168.791746844767,3625.5382861794874
0.6988419913419914,787.2089282381858,787.1307193145311,0.04965086530008504,0.2444427437476864,0.2495572562523136,0.3547195624507797,2168.494398072869,3633.2692027151397
0.7033506493506494,787.3660386745556,787.2884775214937,0.05012137018189878,0.24461297309558597,0.24938702690441403,0.35471956245077974,2168.195842560863,3640.97882146917
0.7078593073593074,787.5234802029636,787.4465672861203,0.05059378013893177,0.2447838917024599,0.2492161082975401,0.3547195624507798,2167.896078196985,3648.66728872923
0.7123679653679654,787.6812536498354,787.604989441447,0.05106809852052622,0.24495550078010506,0.24904449921989494,0.35471956245077985,2167.5951028559325,3656.3347491728014
0.7168766233766235,787.8393598464885,787.7637448251429,0.05154432869724471,0.24512780154799588,0.24887219845200412,0.3547195624507799,2167.29291439894,3663.9813458925064
0.7213852813852815,787.99779962917,787.9228342795278,0.05202247406076027,0.24530079523324455,0.24869920476675544,0.35471956245077996,2166.989510673845,3671.607220420915
0.7258939393939394,788.1565738391013,788.0822586515916,0.052502538023747956,0.24547448307056188,0.2485255169294381,0.35471956245077996,2166.6848895151597,3679.2125127548497
0.7304025974025974,788.3156833225256,788.2420187930162,0.052984524019777914,0.24564886630221852,0.24835113369778147,0.35471956245078,2166.3790487441356,3686.7973613792087
0.7349112554112553,788.4751289307626,788.402115560199,0.05346843550320987,0.24582394617800682,0.2481760538219932,0.35471956245078007,2166.0719861688344,3694.361903290315
0.7394199134199134,788.6349115202685,788.5625498142787,0.05395427594908904,0.24599972395520314,0.24800027604479685,0.3547195624507801,2165.763699584191,3701.9062740188015
0.7439285714285715,788.7950319527022,788.7233224211632,0.05444204885304337,0.2461762008985308,0.2478237991014692,0.3547195624507802,2165.4541867720786,3709.430607652052
0.7484372294372295,788.9554910950008,788.8844342515615,0.05493175773118221,0.2463533782801232,0.2476466217198768,0.35471956245078023,2165.1434455013764,3716.9350368561963
0.7529458874458874,789.1162898194623,789.0458861810175,0.05542340611999618,0.2465312573794878,0.24746874262051222,0.3547195624507803,2164.8314735280287,3724.4196928976808
0.7574545454545455,789.2774290038388,789.2076790899472,0.05591699757625839,0.24670983948347025,0.24729016051652977,0.35471956245078035,2164.518268595111,3731.8847056644204
0.7619632034632036,789.4389095314399,789.369813863681,0.05641253567692678,0.2468891258862191,0.2471108741137809,0.3547195624507804,2164.2038284328896,3739.3302036865393
0.7664718614718615,789.6007322912488,789.5322913925086,0.056910024019047815,0.24706911788915104,0.24693088211084896,0.35471956245078046,2163.888150758885,3746.756314156717
0.7709805194805195,789.7628981780522,789.6951125717302,0.057409466219661316,0.24724981680091623,0.24675018319908376,0.3547195624507805,2163.57123327793,3754.163162950146
0.7754891774891775,789.9254080925842,789.8582783017115,0.05791086591570637,0.24743122393736455,0.24656877606263544,0.3547195624507805,2163.253073682231,3761.550874644104
0.7799978354978355,790.0882629416905,790.0217894879461,0.058414226763928496,0.24761334062151183,0.24638665937848817,0.35471956245078057,2162.933669651426,3768.9195725371646
0.7845064935064936,790.2514636385083,790.1856470411235,0.058919552440787844,0.24779616818350664,0.24620383181649336,0.3547195624507806,2162.613018852644,3776.2693786680384
0.7890151515151516,790.4150111026714,790.3498518772046,0.05942684664236853,0.24797970796059762,0.24602029203940237,0.3547195624507807,2162.291118940561,3783.600413834067
0.7935238095238096,790.5789062605382,790.5144049175065,0.05993611308428914,0.24816396129710094,0.24583603870289908,0.35471956245078073,2161.9679675574575,3790.9127976093705
0.7980324675324677,790.7431500454486,790.6793070887951,0.06044735550161409,0.2483489295443683,0.24565107045563173,0.3547195624507808,2161.643562333276,3798.2066483626595
0.8025411255411257,790.9077433980116,790.8445593233893,0.060960577648766306,0.24853461406075536,0.24546538593924463,0.35471956245078085,2161.3179008856728,3805.482083274718
0.8070497835497836,791.0726872664293,791.0101625592768,0.06147578329944083,0.24872101621159046,0.24527898378840957,0.3547195624507809,2160.9909808200778,3812.739218355569
0.8115584415584416,791.2379826068604,791.176117740242,0.06199297624651951,0.24890813736914372,0.24509186263085628,0.35471956245078096,2160.662799729744,3819.978168461324
0.8160670995670996,791.4036303838295,791.3424258160104,0.06251216030198677,0.2490959789125967,0.24490402108740333,0.35471956245078107,2160.333355195805,3827.1990473107358
0.8205757575757575,791.5696315706875,791.5090877424082,0.06303333929684644,0.24928454222801202,0.24471545777198797,0.3547195624507811,2160.002644787324,3834.401967501443
0.8250844155844155,791.7359871501293,791.6761044815404,0.06355651708103978,0.24947382870830412,0.24452617129169588,0.3547195624507812,2159.670666061348,3841.587040525936
0.8295930735930735,791.9026981147789,791.8434770019917,0.0640816975233644,0.24966383975320952,0.24433616024679047,0.35471956245078123,2159.3374165629602,3848.7543767872376
0.8341017316017316,792.0697654678462,792.011206279049,0.06460888451139461,0.24985457676925826,0.24414542323074176,0.3547195624507813,2159.0028938253267,3855.904085614303
0.8386103896103896,792.2371902238697,792.1792932949512,0.06513808195140268,0.25004604116974527,0.24395395883025472,0.35471956245078134,2158.667095369751,3863.0362752771625
0.8431190476190477,792.4049734095531,792.347739039169,0.06566929376828158,0.25023823437470255,0.24376176562529744,0.3547195624507814,2158.330018705721,3870.151053001797
0.8476277056277057,792.5731160647108,792.516544508719,0.06620252390546875,0.2504311578108715,0.2435688421891285,0.35471956245078146,2157.9916613309556,3877.2485249847637
0.8521363636363637,792.7416192433334,792.6857107085136,0.06673777632487145,0.2506248129116759,0.24337518708832415,0.3547195624507815,2157.652020731455,3884.3287964075726
0.8566450216450217,792.9104840147941,792.855238651757,0.06727505500679337,0.2508192011171953,0.24318079888280472,0.35471956245078157,2157.3110943815464,3891.39197145083
0.8611536796536796,793.0797114652097,793.0251293603867,0.06781436394986287,0.2510143238741393,0.2429856761258607,0.3547195624507817,2156.9688797439285,3898.4381533081464
0.8656623376623377,793.249302698981,793.195383865571,0.06835570717096282,0.25121018263582195,0.24278981736417804,0.35471956245078173,2156.6253742697168,3905.467444199823
0.8701709956709958,793.4192588405346,793.3660032082671,0.0688990887051621,0.2514067788621371,0.24259322113786294,0.3547195624507818,2156.280575398487,3912.4799453863197
0.8746796536796537,793.589581036294,793.5369884398501,0.06944451260564927,0.25160411401953403,0.24239588598046596,0.35471956245078184,2155.9344805583182,3919.4757571815176
0.8791883116883117,793.760270456912,793.7083406228192,0.069991982943668,0.25180218958099476,0.24219781041900523,0.3547195624507819,2155.587087165831,3926.4549789657813
0.8836969696969698,793.9313282997973,793.8800608315928,0.07054150380845511,0.2520010070260111,0.2419989929739889,0.354719562450782,2155.238392626229,3933.417709198826
0.8882056277056278,794.1027557919789,794.0521501534056,0.07109307930718083,0.2522005678405631,0.2417994321594369,0.35471956245078207,2154.8883943333376,3940.364045432404
0.8927142857142858,794.2745541933521,794.2246096893169,0.07164671356489202,0.2524008735170988,0.24159912648290122,0.3547195624507821,2154.5370896696377,3947.2940843228175
0.8972229437229438,794.4467248003593,794.3974405553497,0.07220241072445852,0.25260192555451433,0.24139807444548564,0.3547195624507822,2154.1844760063,3954.2079216432626
0.9017316017316017,794.6192689501661,794.5706438837741,0.07276017494652268,0.25280372545813634,0.24119627454186368,0.3547195624507823,2153.8305507032196,3961.1056522960253
0.9062402597402597,794.7921880253982,794.7442208245562,0.07332001040945303,0.2530062747397045,0.2409937252602955,0.35471956245078234,2153.4753111090417,3967.9873703245257
0.9107489177489178,794.9654834595216,794.9181725469942,0.07388192130930209,0.2532095749173567,0.24079042508264334,0.3547195624507824,2153.118754561192,3974.8531689252377
0.9152575757575758,795.1391567429498,795.0925002415661,0.07444591185976886,0.2534136275156153,0.2405863724843847,0.35471956245078246,2152.760878385897,3981.703140459483
0.9197662337662338,795.3132094299835,795.2672051220189,0.07501198629216702,0.2536184340653758,0.24038156593462418,0.35471956245078257,2152.4016798982075,3988.537376465123
0.9242748917748917,795.4876431466954,795.4422884277308,0.07558014885539906,0.2538239961038973,0.24017600389610272,0.3547195624507826,2152.041156402013,3995.3559676681552
0.9287835497835498,795.6624595998941,795.6177514263833,0.07615040381593724,0.2540303151747955,0.2399696848252045,0.3547195624507827,2151.6793051900527,4002.1590039942403
0.9332922077922079,795.8376605873168,795.7935954169876,0.07672275545781239,0.25423739282803914,0.23976260717196088,0.3547195624507828,2151.316123543927,4008.946574580164
0.9378008658008659,796.013248009223,795.9698217333117,0.07729720808261156,0.25444523061994845,0.23955476938005152,0.35471956245078284,2150.951608734094,4015.71876778527
0.9423095238095238,796.189223881586,796.1464317477645,0.07787376600948555,0.25465383011319864,0.23934616988680135,0.35471956245078295,2150.5857580198667,4022.4756712028675
0.9468181818181818,796.3655903511053,796.3234268758007,0.07845243357516778,0.254863192876826,0.23913680712317395,0.354719562450783,2150.2185686494026,4029.2173716716557
0.9513268398268397,796.5423497122968,796.5008085809199,0.07903321513400599,0.25507332048624,0.23892667951376,0.35471956245078307,2149.850037859682,4035.943955287177
0.9558354978354978,796.7195044269531,796.6785783803421,0.07961611505800857,0.25528421452323946,0.23871578547676056,0.3547195624507832,2149.4801628764767,4042.6555074133375
0.9603441558441559,796.8970571463051,796.8567378514575,0.08020113773690739,0.2554958765760358,0.23850412342396424,0.35471956245078323,2149.108940914315,4049.352112694031
0.9648528138528139,797.0750107362663,797.0352886391604,0.08078828757823964,0.2557083082392823,0.23829169176071768,0.35471956245078334,2148.736369176425,4056.0338550648903
0.9693614718614718,797.2533683061934,797.214232464195,0.08137756900745122,0.2559215111141118,0.23807848888588817,0.3547195624507834,2148.362444854672,4062.7008177652324
0.9738701298701299,797.4321332416529,797.3935711326615,0.08196898646802461,0.25613548680818266,0.23786451319181734,0.3547195624507835,2147.987165129475,4069.3530833502186
0.978378787878788,797.6113092417614,797.5733065468519,0.08256254442163494,0.2563502369357354,0.23764976306426464,0.35471956245078357,2147.6105271697115,4075.990733703306
0.9828874458874459,797.7909003617319,797.7534407176154,0.08315824734833797,0.25656576311766066,0.23743423688233936,0.3547195624507837,2147.2325281325934,4082.6138500490374
0.9873961038961039,797.9709110613546,797.9339757784816,0.08375609974679514,0.2567820669815807,0.23721793301841937,0.35471956245078373,2146.8531651635267,4089.222512966252
0.991904761904762,798.1513462602372,798.1149140018098,0.08435610613454023,0.2569991501619457,0.2370008498380543,0.35471956245078384,2146.4724353959427,4095.8168024017796
0.99641341991342,798.3322114007337,798.2962578172803,0.08495827104829459,0.25721701430014815,0.23678298569985187,0.3547195624507839,2146.090335951098,4102.396797684719
1.000922077922078,798.5135125196186,798.4780098330883,0.08556259904433772,0.2574356610446565,0.23656433895534354,0.354719562450784,2145.706863937837,4108.962577541398
1.005430735930736,798.6952563296963,798.6601728602766,0.08616909469894135,0.2576550920511725,0.2363449079488275,0.3547195624507841,2145.3220164523204,4115.514220111127
1.009939393939394,798.877450312684,798.8427499407089,0.08677776260887701,0.25787530898281474,0.23612469101718528,0.3547195624507842,2144.9357905776983,4122.051802962869
1.0144480519480519,799.0601028248686,799.0257443792833,0.08738860739200802,0.2580963135103329,0.2359036864896671,0.3547195624507843,2144.54818338374,4128.575403112983
1.01895670995671,799.2432232172189,799.2091597810924,0.08800163368797918,0.25831810731235716,0.23568189268764284,0.3547195624507844,2144.1591919263906,4135.085097044191
1.023465367965368,799.4268219718127,799.3930000943708,0.08861684615901916,0.2585406920756886,0.2354593079243114,0.35471956245078445,2143.768813247267,4141.580960725953
1.027974025974026,799.6109108566505,799.57726966023,0.08923424949087408,0.25876406949563696,0.23523593050436303,0.35471956245078456,2143.3770443730623,4148.063069636469
1.032482683982684,799.7955031011148,799.7619732703713,0.08985384839389268,0.25898824127641323,0.23501175872358673,0.3547195624507847,2142.983882314858,4154.5314987865095
1.036991341991342,799.98061359455,799.9471162342109,0.0904756476042886,0.2592132091315864,0.23478679086841356,0.35471956245078473,2142.5893240673245,4160.986322745364
1.0415,800.1662591106227,800.1327044571208,0.09109965188560852,0.2594389747846146,0.23456102521538544,0.35471956245078484,2142.1933666077866,4167.427615669171
1.046008658008658,800.3524585602952,800.3187445318482,0.09172586603044132,0.2596655399694633,0.2343344600305367,0.35471956245078495,2141.796006895141,4173.855451331945
1.050517316017316,800.539233276378,800.5052438455768,0.09235429486240965,0.25989290643132623,0.23410709356867374,0.35471956245078506,2141.3972418685926,4180.269903159667
1.0550259740259742,800.7266073326894,800.6922107056004,0.09298494323849237,0.2601210759274654,0.23387892407253458,0.3547195624507851,2140.9970684461805,4186.671044267793
1.0595346320346322,800.9146079008287,800.8796544871668,0.0936178160517368,0.26035005022819246,0.23364994977180756,0.35471956245078523,2140.5954835230564,4193.058947502622
1.0640432900432901,801.1032656474067,801.0675858077641,0.09425291823443074,0.26057983111801614,0.23342016888198386,0.35471956245078534,2140.192483969472,4199.433685486934
1.068551948051948,801.2926151742317,801.2560167329386,0.09489025476181681,0.26081042039698654,0.23318957960301345,0.35471956245078545,2139.788066628423,4205.7953306704
1.073060606060606,801.4826955033577,801.4449610196987,0.09552983065644918,0.26104181988227104,0.23295818011772895,0.35471956245078556,2139.3822283128834,4212.143955385232
1.0775692640692642,801.673550607983,801.6344344046366,0.09617165099331088,0.26127403141000577,0.23272596858999423,0.3547195624507857,2138.974965802559,4218.479631907585
1.0820779220779222,801.865229988859,801.8244549450945,0.09681572090583279,0.26150705683747355,0.23249294316252647,0.3547195624507858,2138.5662758400676,4224.8024325252
1.0865865800865802,802.0577892940166,802.0150434229611,0.09746204559298202,0.26174089804566814,0.23225910195433186,0.35471956245078584,2138.1561551264417,4231.112429611771
1.0910952380952383,802.2512909771381,802.2062238219343,0.09811063032761656,0.2619755569423173,0.23202444305768274,0.35471956245078595,2137.7446003158275,4237.40969570845
1.0956038961038963,802.4458049866736,802.3980238902,0.09876148046633772,0.262211035465447,0.23178896453455303,0.35471956245078606,2137.331608009232,4243.694303612828
1.1001125541125543,802.641409473715,802.5904758012465,0.09941460146110946,0.26244733558758576,0.23155266441241423,0.3547195624507862,2136.917174747149,4249.966326475597
1.1031183261183264,802.7724608927919,802.7191574257787,0.09985127978555834,0.26260532643802337,0.23139467356197663,0.3547195624507863,2136.640083635501,4254.14071968865
1.1061240981240983,802.9040636055906,802.8481577783429,0.10028897152623363,0.2627636839439199,0.2312363160560801,0.35471956245078634,2136.362349467825,4258.309574198519
1.1091298701298702,803.0362477353392,802.9774907283019,0.10072767838810043,0.2629224087221342,0.2310775912778658,0.3547195624507864,2136.083971162248,4262.4729120786305
1.112135642135642,803.1690454678743,803.1071716224025,0.10116740210590629,0.26308150140030045,0.23091849859969954,0.3547195624507865,2135.804947617998,4266.630755546328
1.11413949013949,803.2579350379831,803.1938271673853,0.10146111704247911,0.26318776788988163,0.2308122321101184,0.35471956245078656,2135.6185729029594,4269.3996097837935
1.116143338143338,803.3471232358648,803.2806503330515,0.10175528523231263,0.2632941983671492,0.23070580163285082,0.3547195624507866,2135.431910579302,4272.166038675802
1.1181471861471861,803.436621208661,803.3676469676327,0.10204990721546442,0.26340079302749675,0.2305992069725033,0.3547195624507866,2135.2449603043356,4274.930048933238
1.1201510341510341,803.5264405476319,803.4548233229672,0.10234498354008571,0.26350755206924614,0.23049244793075382,0.3547195624507867,2135.0577217302352,4277.691647306587
1.1221548821548821,803.6165932911774,803.5421860797244,0.10264051476295759,0.2636144756938417,0.2303855243061583,0.35471956245078673,2134.870194503699,4280.450840588226
1.1241587301587301,803.7070919259572,803.6297423733614,0.10293650145006122,0.2637215641060562,0.2302784358939438,0.3547195624507868,2134.6823782655883,4283.20763561473
1.1261625781625781,803.7979493858846,803.717499820663,0.10323294417718311,0.26382881751420995,0.23017118248579002,0.35471956245078684,2134.494272650541,4285.962039269143
1.1281664261664262,803.8891790487751,803.805466546687,0.10352984353055598,0.2639362361304029,0.23006376386959707,0.3547195624507869,2134.305877286568,4288.71405848324
1.1301702741702742,803.9807947304156,803.8936512118925,0.1038272001075363,0.26404382017075945,0.22995617982924055,0.35471956245078695,2134.117191794621,4291.46370023975
1.1321741221741222,804.0728106758284,803.9820630391953,0.1041250145173184,0.26415156985568694,0.22984843014431303,0.354719562450787,2133.9282157881394,4294.210971574518
1.1341779701779702,804.1652415475061,804.0707118406477,0.1044232873816853,0.2642594854101475,0.22974051458985253,0.35471956245078706,2133.7389488725757,4296.955879578611
1.1361818181818182,804.2581024103984,804.1596080433967,0.10472201933579577,0.2643675670639423,0.22963243293605767,0.3547195624507871,2133.5493906448946,4299.6984314003275
1.1381856661856662,804.35140871345,804.2487627145304,0.10502121102900687,0.26447581505200984,0.22952418494799015,0.3547195624507872,2133.3595406930513,4302.438634247112
1.1401895141895142,804.4451762674989,804.3381875843776,0.10532086312573039,0.26458422961473516,0.22941577038526484,0.35471956245078723,2133.169398595447,4305.176495387344
1.1421933621933622,804.5394212193734,804.4278950677791,0.10562097630632138,0.26469281099827174,0.22930718900172825,0.3547195624507873,2132.9789639203686,4307.912022151992
1.1441972101972102,804.63416002205,804.517898282812,0.10592155126799598,0.26480155945487344,0.22919844054512659,0.35471956245078734,2132.788236225402,4310.645221936094
1.1462010582010582,804.7294094007702,804.6082110664091,0.10622258872577567,0.26491047524323597,0.22908952475676403,0.3547195624507874,2132.597215056836,4313.376102200069
1.1482049062049062,804.8251863150523,804.6988479862879,0.1065240894134534,0.26501955862884674,0.22898044137115325,0.35471956245078745,2132.405899949046,4316.104670470816
1.1512106782106781,804.9698783766138,804.8354448075553,0.10697721065505542,0.2651834985505325,0.22881650144946747,0.3547195624507875,2132.118375101768,4320.193204520656
1.1542164502164503,805.1158544684968,804.9728603297336,0.10743137849609861,0.2653478171334125,0.22865218286658753,0.3547195624507876,2131.8301861422897,4324.27657960662
1.1572222222222224,805.2631733869044,805.111153046654,0.1078865956810481,0.26551251537043796,0.22848748462956203,0.3547195624507877,2131.5413313291315,4328.354821992711
1.1602279942279943,805.4118938436059,805.2503850569107,0.10834286507453213,0.26567759429803567,0.22832240570196433,0.3547195624507878,2131.2518088445636,4332.427958287938
1.1632337662337662,805.5620739970329,805.3906218740738,0.108800189668649,0.2658430549987511,0.22815694500124892,0.35471956245078784,2130.961616789971,4336.4960154415285
1.1662395382395383,805.7137709514935,805.531932146838,0.10925857258989656,0.2660088986037557,0.22799110139624432,0.35471956245078795,2130.670753181457,4340.55902073423
1.1692453102453104,805.8670402323479,805.6743872838931,0.10971801710554703,0.2661751262951533,0.22782487370484675,0.35471956245078806,2130.379215945797,4344.617001765518
1.1722510822510823,806.0219352465291,805.8180609813063,0.11017852662928035,0.2663417393080182,0.2276582606919818,0.3547195624507881,2130.087002916866,4348.6699864365955
1.1752568542568542,806.1785067391139,805.9630286538055,0.1106401047258853,0.2665087389320962,0.2274912610679038,0.35471956245078823,2129.794111832652,4352.718002929142
1.1782626262626263,806.3368022576456,806.1093667753604,0.11110275511484209,0.26667612651310063,0.22732387348689936,0.3547195624507883,2129.500540332985,4356.761079679862
1.1812683982683985,806.4968656365063,806.2571521386856,0.11156648167261143,0.2668439034535406,0.22715609654645944,0.3547195624507884,2129.2062859580847,4360.799245350991
1.1842741702741704,806.6587365137557,806.4064610474735,0.1120312884334749,0.26701207121302495,0.22698792878697505,0.35471956245078845,2128.9113461480274,4364.832528797025
1.1872799422799423,806.8224498924641,806.5573684590054,0.11249717958879903,0.26718063130799624,0.22681936869200375,0.35471956245078856,2128.6157182432103,4368.8609590279675
1.1902857142857144,806.9880357576602,806.7099470980336,0.1129641594846294,0.26734958531086006,0.22665041468913996,0.3547195624507887,2128.319399485882,4372.884565169602
1.1932914862914865,807.1555187586126,806.8642665651847,0.11343223261756274,0.26751893484849154,0.22648106515150845,0.35471956245078873,2128.0223870227587,4376.903376421232
1.1962972582972584,807.3249179643304,807.0203924644329,0.11390140362888851,0.26768868160011605,0.22631131839988397,0.35471956245078884,2127.724677908743,4380.917422011523
1.1993030303030303,807.4962466980033,807.1783855742905,0.11437167729703838,0.267858827294577,0.226141172705423,0.35471956245078895,2127.4262691117165,4384.926731153038
1.2023088023088024,807.6695124536959,807.3383010862389,0.11484305852842787,0.2680293737070226,0.22597062629297734,0.35471956245078906,2127.127157518347,4388.931332996151
1.2053145743145746,807.8447168961167,807.500187931633,0.11531555234681815,0.2682003226550571,0.2257996773449429,0.3547195624507891,2126.827339940843,4392.931256582973
1.2083203463203465,808.0218559418144,807.6640882150148,0.11578916388136516,0.26837167599441636,0.22562832400558364,0.3547195624507892,2126.526813124536,4396.926530801984
1.2113261183261184,808.2009199178348,807.8300367676829,0.11626389835355497,0.2685434356142417,0.2254565643857583,0.35471956245078934,2126.2255737561686,4400.917184343964
1.2143318903318905,808.381893791819,807.998060830766,0.11673976106324858,0.2687156034320305,0.2252843965679695,0.3547195624507894,2125.923618472752,4404.903245659825
1.2173376623376626,808.5647574658067,808.1681798722233,0.11721675737407598,0.2688881813883518,0.2251118186116482,0.3547195624507895,2125.620943870833,4408.884742920853
1.2203434343434345,808.749486124697,808.3404055374461,0.117694892698425,0.26906117144141545,0.22493882855858455,0.3547195624507896,2125.3175465160193,4412.8617039818055
1.2233492063492064,808.9360506294342,808.5147417287101,0.11817417248226894,0.2692345755615824,0.2247654244384176,0.3547195624507897,2125.0134229526084,4416.834156347245
1.2263549783549783,809.1244179445232,808.691184804844,0.11865460219006604,0.26940839572590164,0.22459160427409838,0.35471956245078984,2124.7085697131665,4420.802127141368
1.2293607503607502,809.3145515894314,808.8697238893019,0.11913618728994738,0.26958263391275084,0.2244173660872492,0.35471956245078995,2124.4029833279305,4424.765643081551
1.2323665223665223,809.5064121037375,809.050341272417,0.11961893323938623,0.2697572920966517,0.22424270790334827,0.35471956245079,2124.0966603338993,4428.724730455704
1.2353722943722945,809.6999575165016,809.2330128920385,0.12010284547151451,0.2699323722433194,0.22406762775668063,0.3547195624507901,2123.789597283518,4432.679415103491
1.2383780663780664,809.8951438111837,809.417708875949,0.12058792938222235,0.2701078763049946,0.22389212369500539,0.3547195624507902,2123.4817907528636,4436.629722401357
1.2413838383838383,810.0919253784614,809.6043941293912,0.1210741903181446,0.2702838062160977,0.2237161937839023,0.35471956245079034,2123.1732373492664,4440.57567725128
1.2443896103896104,810.2902554504287,809.7930289515768,0.12156163356560683,0.27046016388922883,0.22353983611077116,0.35471956245079045,2122.8639337183267,4444.517304073079
1.2473953823953825,810.4900865108427,809.983569666102,0.12205026434057241,0.27063695121153114,0.22336304878846885,0.35471956245079056,2122.553876550292,4448.454626800086
1.2504011544011544,810.691370677252,810.1759692516232,0.1225400877796039,0.27081417004142044,0.22318582995857958,0.35471956245079067,2122.2430625857937,4452.38766887795
1.2534069264069263,810.894060051976,810.3701779608375,0.12303110893182491,0.2709918222056769,0.2230081777943231,0.3547195624507908,2121.931488620946,4456.316453266302
1.2564126984126984,811.0981070399482,810.5661439176347,0.12352333275184502,0.27116990949688546,0.2228300905031145,0.3547195624507909,2121.6191515118367,4460.241002443018
1.2594184704184705,811.3034646323856,810.763813684167,0.12401676409359036,0.2713484336712037,0.2226515663287963,0.354719562450791,2121.3060481784414,4464.161338410779
1.2624242424242424,811.5100866560697,810.9631327914196,0.12451140770496479,0.27152739644643004,0.22247260355356996,0.3547195624507911,2120.9921756080125,4468.077482705653
1.2654300144300143,811.7179279887345,811.164046228598,0.12500726822325223,0.27170679950034055,0.22229320049965948,0.3547195624507912,2120.677530857994,4471.9894564074175
1.2684357864357865,811.9269447416314,811.3664988882412,0.12550435017115866,0.27188664446925676,0.22211335553074324,0.35471956245079134,2120.3621110585354,4475.897280151326
1.2714415584415586,812.1370944108019,811.5704359653848,0.12600265795338375,0.27206693294680545,0.22193306705319454,0.35471956245079145,2120.045913414666,4479.800974141092
1.2744473304473305,812.3483359989369,811.7758033103137,0.12650219585360511,0.27224766648282733,0.22175233351717263,0.35471956245079156,2119.728935208208,4483.700558162808
1.2774531024531024,812.5606301099459,811.9825477354773,0.12700296803175187,0.2724288465823909,0.22157115341760913,0.3547195624507917,2119.411173799509,4487.5960515996085
1.2804588744588745,812.7739390185125,812.190617277966,0.12750497852144116,0.27261047470486455,0.22138952529513548,0.35471956245079184,2119.092626629066,4491.487473446838
1.2834646464646466,812.9882267169974,812.3999614196025,0.12800823122744712,0.27279255226300125,0.22120744773699874,0.35471956245079195,2118.7732912191323,4495.374842327551
1.2864704184704185,813.2034589420573,812.6105312671838,0.12851272992307053,0.2729750806219867,0.22102491937801325,0.35471956245079206,2118.4531651753864,4499.258176508183
1.2894761904761904,813.419603183312,812.822279695753,0.1290184782472729,0.2731580610984025,0.22084193890159748,0.35471956245079217,2118.132246188752,4503.137493914224
1.2924819624819626,813.6366286763134,813.035161457982,0.12952547970143705,0.27334149495905397,0.220658505040946,0.35471956245079234,2117.810532037451,4507.0128121457865
1.2954877344877347,813.8545063819513,813.2491332628557,0.13003373764561296,0.2735253834196121,0.2204746165803879,0.35471956245079245,2117.4880205893883,4510.884148492943
1.2984935064935066,814.0732089543042,813.4641538268536,0.13054325529410246,0.27370972764301593,0.2202902723569841,0.35471956245079256,2117.1647098049507,4514.751519950741
1.3014992784992785,814.2927106987843,813.680183900769,0.13105403571023164,0.27389452873758124,0.22010547126241878,0.35471956245079267,2116.8405977403277,4518.6149432338325
1.3045050505050506,814.5129875222722,813.8971862751871,0.1315660818001517,0.2740797877547578,0.21992021224524225,0.35471956245079284,2116.515682551441,4522.474434790631
1.3075108225108227,814.7340168767663,814.1151257674886,0.1320793963055015,0.27426550568647445,0.21973449431352557,0.35471956245079295,2116.189962498603,4526.330010816957
1.3105165945165946,814.9557776979174,814.3339691930545,0.13259398179475337,0.27445168346200827,0.21954831653799176,0.3547195624507931,2115.8634359520092,4530.181687269137
1.3135223665223665,815.1782503396488,814.5536853231438,0.13310984065305048,0.2746383219443075,0.21936167805569254,0.3547195624507932,2115.536101398183,4534.029479876517
1.3165281385281384,815.4014165059149,814.7742448316978,0.13362697507032878,0.2748254219256941,0.21917457807430588,0.35471956245079334,2115.207957447516,4537.873404153378
1.3195339105339103,815.6252591805023,814.9956202331031,0.13414538702749773,0.27501298412286407,0.21898701587713595,0.3547195624507935,2114.879002843037,4541.713475410233
1.3225396825396825,815.8497625556386,815.2177858127238,0.1346650782804318,0.27520100917109525,0.21879899082890478,0.3547195624507936,2114.5492364705683,4545.549708764504
1.3255454545454546,816.0749119600463,815.4407175518046,0.1351860503415,0.2753894976175649,0.21861050238243507,0.3547195624507938,2114.2186573704466,4549.382119150584
1.3285512265512267,816.3006937869615,815.6643930481341,0.13570830445833043,0.27557844991366687,0.21842155008633313,0.3547195624507939,2113.8872647509984,4553.210721329263
1.3315569985569988,816.5270954225231,815.8887914336697,0.13623184158947438,0.2757678664062062,0.2182321335937938,0.35471956245079406,2113.555058003982,4557.035529896567
1.3345627705627707,816.7541051748447,816.1138932901382,0.13675666237659448,0.27595774732733747,0.21804225267266253,0.3547195624507942,2113.2220367222344,4560.85655929197
1.3375685425685426,816.9817122039815,816.3396805634601,0.13728276711275933,0.27614809278309327,0.2178519072169067,0.35471956245079433,2112.888200719792,4564.673823806034
1.3405743145743145,817.2099064529287,816.566136477687,0.1378101557063756,0.27633890274033507,0.21766109725966495,0.3547195624507945,2112.5535500547744,4568.487337587454
1.3435800865800864,817.4386785797035,816.793245448999,0.13833882764023456,0.2765301770119359,0.21746982298806408,0.35471956245079467,2112.2180850553723,4572.297114649549
1.3465858585858586,817.6680198904997,817.0209930001774,0.13886878192508506,0.27672191523998335,0.21727808476001667,0.3547195624507948,2111.881806349308,4576.103168876197
1.3495916305916307,817.8979222738344,817.2493656758485,0.13940001704707508,0.27691411687676354,0.2170858831232365,0.35471956245079495,2111.544714897186,4579.905514027221
1.3525974025974026,818.1283781355471,817.4783509586822,0.1399325309083243,0.27710678116326026,0.21689321883673973,0.3547195624507951,2111.2068120302006,4583.704163743265
1.3556031746031747,818.359380334457,817.7079371866364,0.1404663207598014,0.2772999071048701,0.2167000928951299,0.3547195624507953,2110.868099492731,4587.499131550126
1.3586089466089468,818.5909221184278,817.9381134712371,0.1410013831255798,0.27749349344399776,0.21650650655600223,0.3547195624507954,2110.5285794904,4591.2904308626
1.3616147186147187,818.8229970605408,818.168869616808,0.14153771371743737,0.27768753862915824,0.21631246137084176,0.35471956245079556,2110.1882547442697,4595.0780749878095
1.3646204906204906,819.0555989950238,818.4001960404842,0.14207530733864138,0.2778820407801661,0.2161179592198339,0.3547195624507957,2109.847128551889,4598.862077128034
1.3676262626262625,819.2887219525361,818.6320836927666,0.1426141577756269,0.27807699764894456,0.21592300235105544,0.3547195624507959,2109.5052048560315,4602.64245038304
1.3706320346320346,819.5223600943563,818.8645239783131,0.14315425767612738,0.27827240657543295,0.21572759342456704,0.35471956245079606,2109.162488322025,4606.41920775192
1.3736378066378068,819.7565076449731,819.0975086765897,0.14369559841215418,0.2784682644380124,0.21553173556198757,0.3547195624507962,2108.818984424699,4610.192362134403
1.3766435786435787,819.9911588225212,819.3310298619459,0.14423816992604455,0.2786645675978061,0.21533543240219388,0.3547195624507964,2108.474699546071,4613.961926331671
1.3796493506493506,820.2263077664531,819.5650798226135,0.14478196055760603,0.27886131183613944,0.21513868816386056,0.35471956245079656,2108.1296410850323,4617.72791304663
1.3826551226551225,820.4619484617799,819.7996509780656,0.14532695685017785,0.279058492284373,0.21494150771562698,0.3547195624507967,2107.7838175804113,4621.49033488364
1.3856608946608946,820.6980746591548,820.0347357941146,0.14587314333321266,0.2792561033452405,0.21474389665475954,0.3547195624507969,2107.4372388489337,4625.249204347664
1.3886666666666667,820.934679790009,820.2703266950583,0.14642050227874776,0.2794541386047391,0.21454586139526088,0.35471956245079705,2107.089916139751,4629.004533842825
1.3916724386724386,821.1717568758902,820.5064159721286,0.14696901342889784,0.2796525907335368,0.2143474092664632,0.3547195624507972,2106.7418623073604,4632.756335670323
1.3946782106782107,821.4092984310845,820.7429956874245,0.147518653691255,0.2798514513767668,0.21414854862323318,0.3547195624507974,2106.3930920048833,4636.5046220256745
1.3976839826839829,821.6472963575397,820.9800575724557,0.14806939679883885,0.28005071103099766,0.21394928896900237,0.3547195624507976,2106.043621899845,4640.2494049952265
1.4006897546897548,821.8857418310441,821.2175929203542,0.14862121293101052,0.28025035890707894,0.21374964109292108,0.3547195624507978,2105.6934709147195,4643.9906965519
1.4036955266955267,822.1246251775558,821.455592470754,0.14917406829155,0.2804503827774893,0.2135496172225107,0.35471956245079794,2105.3426604946562,4647.728508550089
1.4067012987012988,822.3639357385254,821.6940462862823,0.14972792463992693,0.28065076880674944,0.21334923119325055,0.35471956245079816,2104.9912149049105,4651.462852719646
1.409707070707071,822.6036617240165,821.9329436195578,0.1502827387716785,0.2808515013634222,0.2131484986365778,0.35471956245079833,2104.6391615605653,4655.193740658889
1.4127128427128428,822.8437900524087,822.1722727695538,0.15083846194377715,0.28105256281220947,0.21294743718779052,0.3547195624507985,2104.2865313911616,4658.921183826529
1.4157186147186147,823.0843061754683,822.4120209261683,0.15139503924095318,0.28125393328468723,0.21274606671531276,0.3547195624507987,2103.9333592427906,4662.645193532443
1.4187243867243868,823.3251938876177,822.6521740018414,0.15195240887917771,0.2814555904273042,0.21254440957269577,0.3547195624507989,2103.579684320067,4666.365780927167
1.421730158730159,823.5664351183191,822.8927164491037,0.15251050144295517,0.2816575091254337,0.21234249087456636,0.3547195624507991,2103.2255506700976,4670.082956990022
1.4247359307359309,823.8080097066347,823.1336310630148,0.15306923905378247,0.28185966120252026,0.21214033879747976,0.3547195624507993,2102.87100771013,4673.796732515746
1.4267397787397789,823.9692336259266,823.2944382283881,0.15344204648507523,0.28199454347127884,0.21200545652872116,0.35471956245079944,2102.6344454175132,4676.270698919815
1.4287436267436266,824.1305884644539,823.4553962051449,0.15381507368130243,0.28212950525130914,0.21187049474869088,0.35471956245079955,2102.3977436746272,4678.743161774118
1.4307474747474747,824.2920663776356,823.6164983853153,0.15418829010572904,0.2822645354943761,0.21173546450562392,0.35471956245079966,2102.160921858339,4681.214124120225
1.4327513227513229,824.4536589331703,823.7777376802533,0.15456166290363876,0.2823996223135958,0.21160037768640422,0.35471956245079983,2101.924000816374,4683.683588952051
1.4347551707551707,824.6153570711317,823.9391064854245,0.15493515675527192,0.282534752930228,0.211465247069772,0.35471956245079994,2101.6870029606334,4686.151559213097
1.4367590187590187,824.7771510625792,824.1005966437308,0.15530873372373183,0.28266991361864857,0.21133008638135142,0.3547195624508001,2101.449952363704,4688.618037793534
1.4387628667628667,824.9390304668103,824.2621994074325,0.1556823530984914,0.2828050896497298,0.21119491035027022,0.3547195624508002,2101.21287485816,4691.083027527074
1.4407667147667145,825.1009840874259,824.4239053987646,0.1560559712353166,0.28294026523292454,0.21105973476707546,0.3547195624508004,2100.9757981381385,4693.546531187653
1.4427705627705627,825.2629999274252,824.5857045693743,0.15642954139362397,0.28307542345742204,0.21092457654257793,0.3547195624508005,2100.738751862543,4696.008551485927
1.4447744107744107,825.425065143608,824.7475861587494,0.15680301357252202,0.2832105462328273,0.21078945376717267,0.35471956245080066,2100.5017677590818,4698.469091065544
1.4467782587782587,825.5871660006168,824.9095386518578,0.1571763343470394,0.28334561422990834,0.2106543857700917,0.3547195624508008,2100.2648797281886,4700.92815249924
1.448782106782107,825.7492878250268,825.0715497362633,0.1575494467063221,0.28348060682205545,0.21051939317794457,0.35471956245080094,2100.028123945694,4703.385738284711
1.450785954785955,825.9114149599615,825.2336062590454,0.15792228989588353,0.28361550202820746,0.21038449797179257,0.35471956245080105,2099.7915389629234,4705.841850840292
1.4527898027898027,826.073530720793,825.3956941839131,0.15829479926631285,0.2837502764581138,0.2102497235418862,0.3547195624508012,2099.555165802699,4708.296492500448
1.4547936507936507,826.2356173525731,825.5577985489682,0.15866690613118345,0.28388490526092586,0.21011509473907414,0.3547195624508014,2099.3190480495014,4710.7496655110635
1.4567974987974985,826.3976559899276,825.7199034256486,0.1590385376372495,0.2840193620782338,0.20998063792176622,0.3547195624508015,2099.083231931838,4713.201372024567
1.4588013468013468,826.5596266202373,825.8819918794546,0.1594096166503662,0.2841536190027921,0.20984638099720784,0.35471956245080166,2098.847766394629,4715.6516140948925
1.4608051948051948,826.7215080510204,826.0440459331421,0.15978006166090414,0.284287646544299,0.209712353455701,0.35471956245080183,2098.612703159228,4718.100393672286
1.4628090428090428,826.883277882514,826.2060465331396,0.16014978671274618,0.28442141360370665,0.20957858639629337,0.35471956245080194,2098.3780967684747,4720.547712598012
1.464812890812891,827.0449124865354,826.3679735200252,0.16051870136022794,0.28455488745764257,0.20944511254235743,0.3547195624508021,2098.14400461402,4722.993572598948
1.4668167388167388,827.2063869927698,826.5298056039661,0.16088671065760538,0.28468803375459917,0.20931196624540085,0.3547195624508023,2097.910486943007,4725.437975282133
1.4688205868205868,827.3676752836839,826.691520346087,0.16125371518577686,0.2848208165246013,0.2091791834753987,0.3547195624508024,2097.677606841117,4727.880922129293
1.4708244348244346,827.5287499992949,826.8530941467816,0.1616196111210316,0.28495319820408005,0.20904680179591995,0.35471956245080255,2097.445430188943,4730.322414491386
1.4728282828282826,827.689582553033,827.014502242016,0.16198429035052347,0.2850851396776511,0.2089148603223489,0.3547195624508027,2097.2140255887207,4732.762453583221
1.4748321308321308,827.8501431599018,827.1757187086848,0.16234764063894952,0.2852166003384191,0.20878339966158088,0.3547195624508029,2096.9834642585593,4735.201040478216
1.4768359788359788,828.0104008780804,827.336716480067,0.16270954585052924,0.28534753816829056,0.20865246183170943,0.35471956245080305,2096.7538198915886,4737.638176103324
1.4788398268398268,828.1703236650025,827.4974673723883,0.16306988622981575,0.2854779098395712,0.20852209016042875,0.35471956245080316,2096.5251684777722,4740.073861234234
1.480843674843675,828.329878448789,827.6579421234198,0.16342853874410268,0.2856076708388497,0.2083923291611503,0.3547195624508033,2096.297588086635,4742.508096490881
1.4828475228475229,828.4890312157104,827.8181104439316,0.16378537748922573,0.28573677561381694,0.20826322438618308,0.3547195624508035,2096.0711586097655,4744.940882333361
1.4848513708513709,828.647747114098,827.9779410826669,0.16414027415938717,0.2858651777432494,0.20813482225675062,0.35471956245080366,2095.845961462691,4747.372219058308
1.4868552188552189,828.805990574822,828.1374019053135,0.16449309858026936,0.28599283012989035,0.20800716987010964,0.3547195624508038,2095.6220792465942,4749.802106795827
1.488859066859067,828.9637254481014,828.2964599877159,0.1648437193031809,0.28611968521541287,0.20788031478458713,0.354719562450804,2095.3995953713043,4752.230545507042
1.4908629148629151,829.120915156031,828.4550817233107,0.16519200425632186,0.28624569521604837,0.20775430478395163,0.35471956245080416,2095.178593642039,4754.657534982335
1.4928667628667631,829.2775228597958,828.6132329444646,0.1655378214475264,0.28637081237684003,0.20762918762315996,0.3547195624508043,2094.9591578134823,4757.083074840359
1.494870610870611,829.4335116401145,828.7708790570798,0.16588103971108942,0.2864949892418457,0.2075050107581543,0.3547195624508045,2094.7413711158974,4759.507164527854
1.4968744588744591,829.5888446890335,828.927985187493,0.16622152948959198,0.2866181789370035,0.2073818210629965,0.35471956245080466,2094.5253157590187,4761.929803320367
1.4988783068783071,829.7434855107855,829.0845163403608,0.16655916364008527,0.2867403354618104,0.20725966453818964,0.3547195624508048,2094.3110724204953,4764.350990323867
1.500882154882155,829.8973981290599,829.240437565895,0.16689381825264318,0.2868614139854755,0.20713858601452448,0.354719562450805,2094.098719726487,4766.770724477333
1.502886002886003,830.0505472977253,829.3957141345105,0.16722537346824576,0.28698137114283184,0.20701862885716812,0.35471956245080516,2093.888333732678,4769.189004556294
1.5048898508898507,830.2028987118058,829.5503117166814,0.1675537142822605,0.2871001653250368,0.20689983467496323,0.3547195624508053,2093.6799874144367,4771.605829177365
1.506893698893699,830.3544192153709,829.7041965655897,0.16787873131951844,0.28721775695999563,0.2067822430400044,0.3547195624508055,2093.4737501749946,4774.021196803723
1.508897546897547,830.5050770029475,829.8573356999921,0.1682003215671487,0.28733410877750254,0.20666589122249748,0.35471956245080566,2093.269687380434,4776.435105751533
1.510901394901395,830.6548418111286,830.009697084653,0.16851838905198224,0.28744918605432584,0.20655081394567418,0.3547195624508059,2093.0678599298435,4778.847554197265
1.5129052429052432,830.8036850972151,830.1612498056801,0.16883284545042962,0.28756295683486294,0.20643704316513706,0.35471956245080605,2092.868323868326,4781.258540185838
1.514909090909091,830.9515802020006,830.3119642381689,0.16914361062023855,0.2876753921235309,0.2063246078764691,0.3547195624508062,2092.671130049575,4783.668061639531
1.516912938912939,831.0985024941668,830.4618122037109,0.16945061304541187,0.28778646604573827,0.20621353395426173,0.3547195624508064,2092.4763238535556,4786.0761163675725
1.5189167869167868,831.2444294941986,830.6107671155312,0.1697537901877035,0.287896155975057,0.20610384402494297,0.35471956245080655,2092.2839449634657,4788.482702076315
1.5209206349206348,831.3893409762198,830.7588041092994,0.1700530887404339,0.2880044426250533,0.20599555737494668,0.35471956245080677,2092.0940272046773,4790.8878163798845
1.523926406926407,831.6047656126212,830.9790886582932,0.17049467072060237,0.28816420762523437,0.2058357923747656,0.35471956245080705,2091.813824513318,4794.492723534294
1.526932178932179,831.8178153469821,831.1971870654062,0.1709273208198928,0.28832074105797345,0.20567925894202657,0.3547195624508073,2091.539289483171,4798.094305850532
1.529937950937951,832.0284521495498,831.413040205593,0.1713509778084102,0.28847402077020573,0.20552597922979426,0.3547195624508076,2091.270460967229,4801.692554452419
1.532943722943723,832.2366501850357,831.6265996541957,0.17176562619528474,0.2886240411573121,0.2053759588426879,0.3547195624508079,2091.007348795112,4805.287460283516
1.5359494949494952,832.4423955155867,831.8378278335086,0.17217129388209507,0.2887708123141242,0.20522918768587578,0.35471956245080816,2090.749935262073,4808.87901419196
1.538955266955267,832.6456855984432,832.0466979606845,0.1725680491054922,0.28891435892876116,0.20508564107123883,0.35471956245080843,2090.498177069032,4812.46720701195
1.541961038961039,832.8465286137513,832.2531938145679,0.17295599684194438,0.2890547189818613,0.20494528101813872,0.3547195624508087,2090.252007603922,4816.052029640606
1.5449668109668109,833.0449426606247,832.457309344047,0.17333527484918962,0.28919194231437384,0.2048080576856262,0.354719562450809,2090.011339453553,4819.633473109157
1.5479725829725828,833.2409548596132,832.6590481436577,0.17370604950994312,0.2893260891238061,0.2046739108761939,0.3547195624508093,2089.776067040962,4823.211528647773
1.550978354978355,833.4346003977116,832.8584228235806,0.17406851162631043,0.2894572284426364,0.2045427715573636,0.3547195624508096,2089.5460692940364,4826.786187743529
1.553984126984127,833.625921548441,833.0554543010459,0.17442287229089098,0.289585436644473,0.20441456335552702,0.3547195624508099,2089.3212122654745,4830.357442191297
1.556989898989899,833.8149666950153,833.2501710388453,0.17476935893577525,0.2897107960145757,0.2042892039854243,0.3547195624508102,2089.1013516398675,4833.925284137535
1.5599956709956708,834.001789379565,833.4426082544122,0.1751082116353453,0.2898333934122038,0.20416660658779617,0.3547195624508105,2088.886335079732,4837.489706117136
1.5630014430014427,834.1864473963511,833.6328071201388,0.1754396797151458,0.2899533190437006,0.20404668095629938,0.3547195624508108,2088.676004377324,4841.050701083643
1.565005291005291,834.3083802523043,833.7583855290239,0.17565668188187636,0.29003183074201255,0.20396816925798747,0.35471956245081104,2088.53830720244,4843.422790551869
1.567009139009139,834.4293969876954,833.8830044648896,0.175870592163966,0.2901092237919819,0.2038907762080181,0.3547195624508112,2088.402571960871,4845.793352115121
1.569012987012987,834.5495168321874,834.0066795434523,0.1760814876017153,0.29018552606690107,0.20381447393309893,0.35471956245081143,2088.268749767243,4848.162384022822
1.5710168350168352,834.6687593469245,834.1294270567039,0.17628944531459134,0.290260765468705,0.203739234531295,0.35471956245081165,2088.1367916859494,4850.529884618703
1.573020683020683,834.7871443419532,834.2512638829396,0.17649454224325095,0.29033496983463475,0.20366503016536525,0.3547195624508119,2088.006648894847,4852.89585234178
1.575024531024531,834.9046918000638,834.3722074010942,0.17669685491958256,0.2904081668540384,0.20359183314596155,0.35471956245081204,2087.878272831171,4855.260285726967
1.577028379028379,835.0214218069261,834.4922754096134,0.17689645926328307,0.29048038399477244,0.20351961600522755,0.35471956245081226,2087.751615320621,4857.623183405351
1.5790322270322272,835.1373544873472,834.6114860500137,0.1770934304034322,0.29055164843864656,0.2034483515613534,0.3547195624508125,2087.626628690576,4859.984544104168
1.5810360750360752,835.2525099474312,834.7298577352151,0.17728784252341093,0.2906219870253156,0.20337801297468439,0.3547195624508127,2087.503265868502,4862.3443666464955
1.5830399230399232,835.3669082223818,834.8474090826691,0.17747976872746155,0.2906914262040003,0.2033085737959997,0.35471956245081293,2087.381480466623,4864.7026499506965
1.585043771043771,835.4805692296694,834.9641588522551,0.17766928092719556,0.29075999199242586,0.2032400080075741,0.35471956245081315,2087.26122685394,4867.059393029645
1.5870476190476193,835.5935127272612,835.0801258888737,0.1778564497463588,0.2908277099423659,0.2031722900576341,0.3547195624508134,2087.1424602166603,4869.414594989755
1.5890514670514673,835.7057582766083,835.1953290696297,0.17804134444222813,0.29089460511120346,0.20310539488879653,0.3547195624508136,2087.0251366080734,4871.7682550298205
1.591055315055315,835.8173252100836,835.3097872554699,0.17822403284208688,0.29096070203894797,0.20303929796105205,0.3547195624508138,2086.9092129888595,4874.120372439726
1.593059163059163,835.928232602549,835.423519247113,0.17840458129324022,0.2910260247301505,0.20297397526984948,0.35471956245081404,2086.7946472588123,4876.470946599007
1.5950630110630108,836.0384992467624,835.5365437450965,0.17858305462523086,0.2910905966402336,0.2029094033597664,0.35471956245081426,2086.681398280807,4878.819976975301
1.597066859066859,836.1481436323044,835.6488793137439,0.17875951612282523,0.2911544406657174,0.20284555933428258,0.3547195624508145,2086.569425897948,4881.167463122706
1.599070707070707,836.2571839277639,835.7605443488592,0.1789340275086787,0.2912175791379481,0.20278242086205192,0.3547195624508147,2086.4586909445643,4883.513404680051
1.601074555074555,836.365637965884,835.871557048933,0.1791066489344145,0.29128003381987005,0.20271996618012997,0.35471956245081493,2086.349155251874,4885.857801369111
1.6030784030784033,836.4735232314245,835.9819353896605,0.17927743897917586,0.29134182590550217,0.20265817409449785,0.35471956245081515,2086.2407816488994,4888.200652992759
1.605082251082251,836.5808568514749,836.0916971015522,0.17944645465460643,0.2914029760217397,0.2025970239782603,0.3547195624508154,2086.1335339593097,4890.541959433082
1.6070860990860991,836.6876555880036,836.2008596504401,0.17961375141547192,0.2914635042321973,0.2025364957678027,0.3547195624508156,2086.0273769946793,4892.881720649461
1.609089947089947,836.793935832411,836.3094402206688,0.1797793831750785,0.2915234300427872,0.20247656995721283,0.3547195624508158,2085.9222765447053,4895.219936676644
1.611093795093795,836.8997136018877,836.4174557007784,0.17994340232480308,0.29158277240878544,0.20241722759121458,0.35471956245081604,2085.8181993648127,4897.556607622788
1.6130976430976431,837.0050045373855,836.5249226714847,0.18010585975707627,0.29164154974314715,0.2023584502568528,0.3547195624508163,2085.715113161574,4899.89173366751
1.6151014911014911,837.1098239030316,836.6318573957757,0.1802668048912841,0.29169977992587787,0.2023002200741221,0.35471956245081654,2085.612986576271,4902.225315059944
1.6171053391053392,837.2141865868163,836.7382758109469,0.18042628570203023,0.2917574803142587,0.20224251968574133,0.35471956245081676,2085.51178916696,4904.557352116787
1.6191091871091874,837.3181071024095,836.8441935224082,0.18058434874934245,0.291814667753775,0.20218533224622498,0.354719562450817,2085.41149138931,4906.887845220382
1.6211130351130352,837.4215995919685,836.9496257991052,0.18074103921040277,0.29187135858959684,0.20212864141040315,0.35471956245081726,2085.3120645764616,4909.216794816807
1.6231168831168832,837.5246778298092,837.054587570402,0.1808964009124462,0.2919275686784813,0.2020724313215187,0.3547195624508175,2085.2134809181566,4911.54420141399
1.6251207311207312,837.627355226833,837.1590934242902,0.18105047636654406,0.29198331340099554,0.20201668659900446,0.3547195624508177,2085.115713439298,4913.870065579848
1.627124579124579,837.7296448355956,837.2631576067871,0.18120330680195781,0.2920386076739461,0.2019613923260539,0.3547195624508179,2085.018735978152,4916.194387940462
1.6291284271284272,837.8315593559299,837.3667940224011,0.18135493220084667,0.2920934659629361,0.20190653403706388,0.3547195624508182,2084.922523164326,4918.517169178273
1.6311322751322752,837.933111141042,837.4700162355545,0.1815053913331634,0.2921479022949907,0.2018520977050093,0.3547195624508184,2084.8270503966223,4920.8384100303265
1.633136123136123,838.0343122039856,837.5728374728487,0.18165472179146244,0.29220193027115043,0.20179806972884956,0.3547195624508187,2084.7322938209545,4923.158111286534
1.635139971139971,838.1351742244651,837.67527062608,0.18180296002557148,0.2922555630790159,0.20174443692098412,0.3547195624508189,2084.638230308345,4925.476273787994
1.6371438191438188,838.2357085558962,837.7773282559148,0.18195014137695498,0.29230881350517995,0.20169118649482,0.35471956245081915,2084.54483743312,4927.792898425327
1.639147667147667,838.3359262326629,837.8790225961352,0.1820963001126325,0.2923616939475001,0.20163830605249988,0.3547195624508194,2084.452093451387,4930.1079861370745
1.641151515151515,838.4358379775268,837.9803655583829,0.18224146945859762,0.2924142164271889,0.2015857835728111,0.35471956245081965,2084.359977279829,4932.421537908114
1.643155363155363,838.535454209149,838.0813687373305,0.18238568163267196,0.2924663926007009,0.2015336073992991,0.3547195624508199,2084.2684684748565,4934.733554768134
1.6451592111592113,838.6347850496711,838.1820434162138,0.18252896787668105,0.29251823377137376,0.20148176622862624,0.35471956245082015,2084.177547212194,4937.044037790132
1.647163059163059,838.7338403323328,838.2824005726679,0.18267135848794797,0.292569750900823,0.20143024909917703,0.3547195624508204,2084.0871942668905,4939.352988088967
1.649166907166907,838.832629609095,838.3824508848161,0.18281288285007163,0.29262095462007714,0.20137904537992285,0.3547195624508207,2083.997390993793,4941.660406819946
1.6511707551707548,838.931162158221,838.4822047375543,0.182953569462868,0.29267185524041095,0.20132814475958904,0.3547195624508209,2083.9081193085476,4943.966295177444
1.6531746031746029,839.029446991828,838.5816722290017,0.18309344597160662,0.292722462763923,0.201277537236077,0.3547195624508212,2083.819361669045,4946.270654393579
1.655178451178451,839.1274928633543,838.6808631770654,0.18323253919538704,0.2927727868938024,0.20122721310619762,0.3547195624508214,2083.7311010574185,4948.573485736908
1.657182299182299,839.2253082749448,838.7797871260912,0.18337087515472256,0.2928228370443085,0.20117716295569152,0.3547195624508217,2083.643320962536,4950.874790511176
1.659186147186147,839.3229014847295,838.8784533535652,0.18350847909829635,0.2928726223504515,0.20112737764954855,0.354719562450822,2083.556005363027,4953.174570054094
1.6611899951899953,839.4202805139895,838.9768708768413,0.1836453755289146,0.2929221516773821,0.2010778483226179,0.3547195624508222,2083.4691387108096,4955.472825736159
1.6631938431938431,839.5174531541926,839.0750484598664,0.18378158822863588,0.29297143362948364,0.2010285663705164,0.3547195624508225,2083.3827059151495,4957.769558959509
1.6651976911976911,839.614426973896,839.1729946198838,0.18391714028310607,0.2930204765591762,0.20097952344082384,0.35471956245082276,2083.2966923272143,4960.064771156808
1.6672015392015391,839.7112093254996,839.2707176340915,0.18405205410507935,0.29306928857542663,0.20093071142457336,0.35471956245082303,2083.211083725151,4962.358463790179
1.669205387205387,839.807807351858,839.3682255462455,0.1841863514571928,0.2931178775519887,0.20088212244801126,0.35471956245082326,2083.1258662996343,4964.650638350157
1.6712092352092351,839.9042279927294,839.4655261731829,0.18432005347393277,0.29316625113535016,0.20083374886464983,0.35471956245082353,2083.0410266399267,4966.941296354684
1.6732130832130832,840.0004779910761,839.5626271112634,0.1844531806828938,0.29321441675242443,0.2007855832475756,0.3547195624508238,2082.956551720389,4969.230439348131
1.6752169312169312,840.0965638991963,839.659535742708,0.18458575302526803,0.2932623816179637,0.20073761838203633,0.3547195624508241,2082.8724288874805,4971.518068900358
1.6772207792207792,840.1924920847018,839.7562592418332,0.18471778987564605,0.2933101527417229,0.2006898472582771,0.35471956245082437,2082.788645847194,4973.804186605797
1.6792246272246272,840.2882687363249,839.8528045811651,0.18484931006108946,0.29335773693536027,0.20064226306463975,0.3547195624508246,2082.7051906529505,4976.088794082572
1.6812284752284752,840.3838998695715,839.9491785374365,0.1849803318795636,0.29340514081910607,0.20059485918089393,0.35471956245082487,2082.622051693908,4978.371892971641
1.6832323232323232,840.4793913322092,840.0453876974537,0.18511087311769522,0.29345237082818776,0.20054762917181226,0.35471956245082514,2082.539217683689,4980.653484935968
1.685236171236171,840.5747488095919,840.1414384638312,0.1852409510678811,0.29349943321901945,0.20050056678098058,0.3547195624508254,2082.4566776495267,4982.93357165973
1.6872400192400192,840.669977829831,840.2373370605919,0.18537058254480343,0.2935463340751775,0.2004536659248225,0.3547195624508257,2082.374420921785,4985.212154847539
1.6892438672438672,840.7650837688055,840.3330895386313,0.18549978390133226,0.29359307931315404,0.20040692068684593,0.354719562450826,2082.292437123866,4987.489236223693
1.6912477152477152,840.8600718550183,840.4287017810398,0.18562857104384747,0.29363967468790036,0.20036032531209963,0.35471956245082625,2082.2107161624913,4989.764817531459
1.6932515632515635,840.954947174301,840.524179508287,0.1857569594470078,0.29368612579817044,0.20031387420182958,0.35471956245082653,2082.1292482183258,4992.038900532369
1.6952554112554112,841.0497146743719,840.6195282832671,0.18588496416799363,0.2937324380916739,0.20026756190832612,0.3547195624508268,2082.0480237369434,4994.311487005542
1.6972592592592592,841.1443791692441,840.7147535162006,0.18601259986020155,0.2937786168700308,0.2002213831299692,0.3547195624508271,2081.9670334201364,4996.582578747042
1.699263107263107,841.2389453434927,840.8098604694004,0.1861398807864632,0.29382466729355444,0.20017533270644558,0.3547195624508274,2081.886268217527,4998.852177569233
1.701266955266955,841.3334177563817,840.904854261897,0.1862668208317551,0.29387059438584934,0.20012940561415068,0.3547195624508277,2081.8057193185014,5001.120285300175
1.7032708032708033,841.427800845856,840.9997398739288,0.18639343351546767,0.2939164030382505,0.2000835969617495,0.354719562450828,2081.725378144428,5003.386903783032
1.7052746512746513,841.5220989324023,841.0945221512981,0.18651973200321537,0.2939620980140964,0.20003790198590357,0.35471956245082825,2081.6452363411595,5005.652034875501
1.7072784992784993,841.6163162227765,841.1892058095918,0.18664572911820546,0.294007683952842,0.199992316047158,0.35471956245082853,2081.5652857718223,5007.915680449263
1.7092823472823475,841.7104568136061,841.2837954382726,0.1867714373521845,0.29405316537401927,0.19994683462598076,0.3547195624508288,2081.485518509867,5010.177842389441
1.7112861952861953,841.804524694881,841.3782955046453,0.18689686887603457,0.294098546681071,0.19990145331892906,0.35471956245082914,2081.405926832347,5012.438522594092
1.7132900432900433,841.8985237533102,841.4727103576922,0.18702203554991076,0.2941438321650184,0.1998561678349816,0.3547195624508294,2081.326503213487,5014.697722973705
1.7152938912938913,841.9924577755767,841.5670442317906,0.18714694893306463,0.29418902600801555,0.19981097399198444,0.3547195624508297,2081.2472403184447,5016.955445450715
1.717297739297739,842.0863304514735,841.6613012503072,0.18727162029328034,0.29423413228676304,0.19976586771323698,0.35471956245083003,2081.1681309973296,5019.211691959041
1.7193015873015873,842.1801453769383,841.7554854290787,0.18739606061599048,0.29427915497580626,0.19972084502419374,0.3547195624508303,2081.089168279413,5021.466464443631
1.7213054353054353,842.2739060569795,841.849600679776,0.1875202806130452,0.2943240979507082,0.19967590204929184,0.3547195624508306,2081.010345367568,5023.719764860024
1.7233092833092833,842.3676159084989,841.943650813157,0.18764429073115363,0.2943689649911032,0.19963103500889678,0.3547195624508309,2080.931655632909,5025.971595173934
1.7253131313131316,842.4612782630314,842.0376395422172,0.187768101160084,0.29441375978366435,0.19958624021633564,0.3547195624508312,2080.8530926095914,5028.22195736083
1.7273169793169796,842.5548963693707,842.131570485228,0.1878917218404829,0.2944584859249319,0.1995415140750681,0.35471956245083147,2080.774649989849,5030.47085340555
1.7293208273208274,842.6484733961157,842.2254471686771,0.1880151624714641,0.29450314692405927,0.19949685307594073,0.3547195624508318,2080.6963216191784,5032.718285301914
1.7313246753246754,842.7420124341309,842.3192730301115,0.18813843251793688,0.29454774620546437,0.19945225379453566,0.3547195624508321,2080.6181014916897,5034.964255052354
1.7333285233285232,842.8355164989119,842.413051420881,0.18826154121763064,0.294592287111371,0.199407712888629,0.3547195624508324,2080.5399837456466,5037.2087646675545
1.7353323713323714,842.9289885328824,842.5067856087936,0.18838449758792639,0.29463677290428075,0.19936322709571921,0.3547195624508327,2080.4619626591357,5039.451816166107
1.7373362193362194,843.0224314076005,842.6004787806779,0.1885073104323991,0.29468120676933984,0.19931879323066015,0.354719562450833,2080.38403264591,5041.693411574174
1.7393400673400674,843.1158479258947,842.694134044859,0.188629988347154,0.2947255918166315,0.19927440818336847,0.3547195624508333,2080.306188251373,5043.933552925161
1.7413439153439156,843.2092408239258,842.7877544335513,0.18875253972693953,0.29476993108338795,0.19923006891661205,0.35471956245083364,2080.228424148697,5046.172242259405
1.7433477633477634,843.302612773178,842.8813429051702,0.18887497277104542,0.2948142275361241,0.19918577246387595,0.35471956245083397,2080.1507351350815,5048.409481623866
1.7453516113516114,843.3959663823786,842.9749023465631,0.1889972954889873,0.29485848407269416,0.19914151592730583,0.35471956245083425,2080.073116128145,5050.6452730718365
1.7473554593554592,843.48930419936,843.0684355751688,0.18911951570602453,0.2949027035242885,0.19909729647571153,0.3547195624508346,2079.995562162426,5052.879618662651
1.7493593073593072,843.5826287128483,843.1619453410988,0.18924164106845004,0.29494688865734686,0.19905311134265316,0.3547195624508349,2079.9180683860227,5055.1125204614145
1.7513631553631555,843.6759423541985,843.255434329151,0.18936367904872944,0.29499104217541816,0.19900895782458186,0.3547195624508352,2079.840630057336,5057.343980538723
1.7533670033670032,843.7692474990645,843.3489051607526,0.18948563695043816,0.29503516672094654,0.19896483327905345,0.3547195624508355,2079.7632425419347,5059.574000970418
1.7553708513708512,843.862546469022,843.4423603958415,0.18960752191307648,0.2950792648770136,0.1989207351229864,0.35471956245083586,2079.6859013094995,5061.802583837325
1.7573746993746993,843.9558415331246,843.5358025346786,0.18972934091666135,0.2951233391689996,0.19887666083100042,0.3547195624508362,2079.6086019309105,5064.029731225011
1.7593785473785475,844.0491349094181,843.6292340196026,0.18985110078622264,0.2951673920662102,0.19883260793378985,0.3547195624508365,2079.5313400753935,5066.255445223552
1.7613823953823955,844.1424287663958,843.7226572367234,0.18997280819610202,0.2952114259834318,0.19878857401656821,0.3547195624508368,2079.4541115077936,5068.479727927299
1.7643881673881676,844.2823750785885,843.862781645926,0.19015528518961905,0.2952774464240553,0.1987225535759447,0.3547195624508373,2079.338322034964,5071.8134728965
1.7673939393939395,844.4223341924011,844.0029003329291,0.19033768023771347,0.2953434372167062,0.19865656278329383,0.3547195624508378,2079.222584560018,5075.144009272827
1.7703997113997116,844.5623128411537,844.1430206877001,0.1905200140830715,0.29540940586611836,0.19859059413388164,0.3547195624508383,2079.1068859208303,5078.47134417225
1.7734054834054838,844.7023175406937,844.2831498542654,0.19070230680452366,0.29547535963684185,0.19852464036315817,0.3547195624508388,2078.991213376524,5081.795484727107
1.7764112554112557,844.8423545983763,844.4232947411161,0.1908845778436999,0.29554130556288644,0.19845869443711356,0.3547195624508393,2078.8755545905506,5085.11643808467
1.7794170274170276,844.9824301216411,844.5634620311197,0.1910668460305612,0.2956072504569594,0.19839274954304062,0.3547195624508398,2078.759897614493,5088.434211405781
1.7824227994227995,845.1225500261731,844.7036581909454,0.19124912960769672,0.2956732009192558,0.1983267990807442,0.3547195624508403,2078.6442308726473,5091.74881186353
1.7854285714285716,845.2627200437239,844.8438894800632,0.1914314462537175,0.2957391633459229,0.19826083665407715,0.35471956245084085,2078.5285431471766,5095.0602466420205
1.7884343434343437,845.4029457296397,844.984161959354,0.1916138131059015,0.2958051439372525,0.19819485606274753,0.35471956245084135,2078.4128235637436,5098.368522935162
1.7914401154401156,845.543232470176,845.1244814993967,0.1917962467824201,0.2958711487057232,0.19812885129427682,0.35471956245084185,2078.2970615774066,5101.673647945543
1.7944458874458875,845.6835854897968,845.2648537885603,0.19197876340499068,0.2959371834841956,0.19806281651580437,0.3547195624508424,2078.1812469582446,5104.975628883333
1.7974516594516594,845.8240098587503,845.4052843410979,0.19216137862322066,0.29600325393472054,0.19799674606527948,0.3547195624508429,2078.065369775911,5108.274472965258
1.8004574314574315,845.9645105015828,845.5457785056582,0.19234410764353488,0.2960693655590043,0.19793063444099565,0.35471956245084346,2077.9494203812783,5111.570187413615
1.8034632034632037,846.1050922078598,845.6863414750204,0.19252696526828128,0.2961355237125581,0.19786447628744194,0.35471956245084396,2077.833389381621,5114.862779455369
1.8064689754689756,846.2457596476415,845.8269782986407,0.19270996595621345,0.29620173362657964,0.19779826637342035,0.3547195624508445,2077.7172676022415,5118.152256321319
1.8094747474747477,846.3865173969699,845.9676939012937,0.19289312392757443,0.2962680004459736,0.19773199955402637,0.354719562450845,2077.601046019786,5121.43862524541
1.8124805194805198,846.5273699838741,846.1084931143655,0.1930764533601084,0.29633432930026843,0.19766567069973162,0.35471956245084557,2077.4847156378673,5124.721893464243
1.8154862914862917,846.6683219764093,846.2493807331975,0.19325996877095142,0.2964007254417848,0.19759927455821516,0.3547195624508461,2077.368267244741,5128.00206821702
1.8184920634920636,846.809378156084,846.3903616275256,0.19344368577562895,0.29646719452024267,0.19753280547975735,0.3547195624508467,2077.2516909316873,5131.279156746236
1.8214978354978355,846.9505438643463,846.531440959702,0.19362762261072136,0.29653374313366304,0.19746625686633693,0.35471956245084724,2077.134975126814,5134.5531662999565
1.8245036075036074,847.0918256968873,846.672624619947,0.19381180319001964,0.2966003799340903,0.19739962006590972,0.3547195624508478,2077.018104655796,5137.82410413715
1.8275093795093795,847.2332328871979,846.8139200928653,0.19399626319569194,0.2966671178313845,0.19733288216861555,0.35471956245084835,2076.901056876768,5141.0919775392285
1.8305151515151517,847.3747800146645,846.9553381572591,0.1941810619879886,0.29673397830217013,0.19726602169782986,0.3547195624508489,2076.7837941231073,5144.356793833729
1.8335209235209236,847.5164920953339,847.0968961029724,0.19436630492836388,0.29680099946637417,0.19719900053362585,0.35471956245084946,2076.666249538456,5147.618560441348
1.8365266955266955,847.6584133426156,847.2386233571688,0.19455218153047454,0.296868249890312,0.19713175010968795,0.35471956245085007,2076.548302868277,5150.8772849649295
1.8395324675324676,847.8006194254027,847.3805697081375,0.19473901782663003,0.2969358475329458,0.19706415246705425,0.3547195624508506,2076.4297472310964,5154.132975344006
1.8425382395382397,847.9432260054192,847.5228123946974,0.19492730893013782,0.2970039715269872,0.19699602847301279,0.35471956245085123,2076.3102684563023,5157.385640079661
1.8455440115440116,848.0863681727203,847.6654476549033,0.19511761588688625,0.2970728248596517,0.19692717514034833,0.3547195624508518,2076.189510536233,5160.635288442074
1.8485497835497835,848.2300411347161,847.8085049341319,0.19530982501566788,0.29714236640091357,0.19685763359908645,0.3547195624508524,2076.067545606487,5163.8819302627135
1.8500526695526696,848.3017768961528,847.8800401760063,0.19540522155122836,0.2971768810056879,0.1968231189943121,0.3547195624508527,2076.0070124162507,5165.504126285398
1.8515555555555556,848.3725537304296,847.9510987987734,0.1954960033048488,0.2972097259756705,0.19679027402432947,0.35471956245085295,2075.949407502932,5167.125571957289
1.8523069985569987,848.4070701091924,847.9861649914949,0.1955373059298022,0.2972246693252171,0.19677533067478295,0.3547195624508531,2075.9231992172863,5167.93601219608
1.8530584415584417,848.4407269388076,848.0207575166098,0.19557463308316814,0.2972381743433837,0.19676182565661635,0.3547195624508533,2075.8995135387404,5168.746262710057
1.8545613275613277,848.5055099142787,848.0884607337191,0.19563782983120362,0.29726103901838097,0.19673896098161903,0.35471956245085356,2075.85941249368,5170.366189577347
1.8560642135642138,848.568132072653,848.1547044916846,0.19569177799439494,0.29728055754198246,0.19671944245801756,0.35471956245085384,2075.825180072071,5171.985344567153
1.8575670995670996,848.6298291739785,848.2200741405424,0.19574244778847089,0.29729888994688836,0.19670111005311164,0.3547195624508542,2075.793027916167,5173.603723950859
1.8590699855699857,848.6911196056603,848.2848420615741,0.19579226782663492,0.29731691490887424,0.19668308509112578,0.35471956245085445,2075.7614149668075,5175.22132665067
1.8605728715728718,848.7521725304721,848.3491195802214,0.195841967362757,0.29733489627304677,0.19666510372695328,0.3547195624508548,2075.729878481158,5176.838152552897
1.8620757575757578,848.8130460586301,848.4129645499642,0.19589174165161874,0.29735290468286873,0.19664709531713126,0.35471956245085506,2075.6982945616915,5178.454201857493
1.863578643578644,848.8737664051584,848.4764177353719,0.19594163746407406,0.29737095706010297,0.19662904293989703,0.35471956245085534,2075.6666335302966,5180.069474883041
1.8665844155844158,848.9948119823375,848.6022821511236,0.19604181505693222,0.29740720145833405,0.196592798541666,0.35471956245085595,2075.6030665543026,5183.297693667663
1.8695901875901877,849.1154159476212,848.7269497990379,0.19614249025905983,0.2974436258923197,0.19655637410768032,0.35471956245085656,2075.539183823901,5186.5228124668565
1.8725959595959596,849.2356668160148,848.8506213669499,0.19624364336266537,0.29748022323175244,0.19651977676824756,0.3547195624508572,2075.47499784453,5189.744835417907
1.8756017316017317,849.3556413608438,848.9734685609781,0.19634526389240284,0.2975169896866369,0.19648301031336307,0.35471956245085784,2075.4105152632465,5192.9637671475375
1.8786075036075038,849.4754060791226,849.0956383711857,0.19644734762345473,0.29755392372842804,0.19644607627157198,0.35471956245085845,2075.345738760877,5196.179612702882
1.8816132756132757,849.5950183732067,849.2172566133341,0.1965498938910236,0.29759102511660107,0.19640897488339892,0.35471956245085906,2075.2806687592642,5199.392377490502
1.8846190476190476,849.7145276925611,849.3384309776205,0.19665290404291988,0.2976282943387959,0.19637170566120413,0.35471956245085967,2075.2153044031656,5202.602067222831
1.8876248196248195,849.8339765940342,849.4592536519067,0.19675638058827838,0.297665732302821,0.19633426769717902,0.35471956245086034,2075.1496441004265,5205.808687871649
1.8906305916305917,849.9534016942213,849.5798035731824,0.19686032672808138,0.29770334016679645,0.19629665983320355,0.35471956245086095,2075.0836858198873,5209.012245627961
1.8936363636363638,850.0728345079675,849.7001483564494,0.19696474609224554,0.2977411192440314,0.1962588807559686,0.3547195624508616,2075.017427258209,5212.2127468675135
1.8966421356421357,850.1923021780453,849.8203459453794,0.19706964258937573,0.2977790709486647,0.19622092905133529,0.3547195624508622,2074.950865935216,5215.410198121287
1.8996479076479078,850.3118281055959,849.9404460238272,0.19717502031825207,0.29781719676364093,0.19618280323635903,0.3547195624508629,2074.8839992500552,5218.604606050254
1.90265367965368,850.4314324925183,850.0604912223058,0.19728088351393047,0.29785549822120955,0.19614450177879045,0.35471956245086356,2074.8168245154034,5221.79597742383
1.9056594516594518,850.5511328068152,850.1805181488726,0.19738723651338347,0.2978939768904934,0.19610602310950662,0.3547195624508642,2074.749338979265,5224.9843191014825
1.9076632996632998,850.6309938679373,850.2605416763444,0.19745841280419954,0.2979197285756292,0.19608027142437082,0.35471956245086467,2074.7041745723295,5227.108200476984
1.9096671476671476,850.7109083087892,850.3405793698763,0.19752981007143774,0.2979455602103547,0.19605443978964535,0.3547195624508651,2074.658869946384,5229.2307404714475
1.9116709956709956,850.7908797544702,850.4206386629562,0.1976014296503038,0.29797147227774917,0.19602852772225082,0.3547195624508655,2074.613424254183,5231.351941165375
1.9136748436748434,850.8709115117407,850.5007262885656,0.1976732728854126,0.2979974652642963,0.19600253473570367,0.35471956245086594,2074.567836642511,5233.471804648369
1.9156786916786916,850.9510066008899,850.5808483493486,0.19774534112965345,0.2980235396594735,0.19597646034052651,0.35471956245086644,2074.522106252901,5235.59033301789
1.9166806156806158,850.9910787675655,850.6209240433577,0.19778146005500413,0.2980366075389936,0.19596339246100639,0.35471956245086667,2074.4991872468117,5236.649097192427
1.9176825396825397,851.0311677844617,850.661010380834,0.19781763574323594,0.29804969595540637,0.19595030404459363,0.3547195624508669,2074.4762322222423,5237.707528378143
1.9186844636844635,851.0712739608533,850.7011079744138,0.19785386836538635,0.29806280497059334,0.19593719502940665,0.3547195624508671,2074.453241070661,5238.7656268389555
1.9196863876863877,851.1113975929878,850.7412174080737,0.19789015809284025,0.2980759346465619,0.19592406535343812,0.35471956245086733,2074.4302136833176,5239.82339283908
1.9206883116883118,851.1515389647578,850.7813392386062,0.1979265050973229,0.2980890850454424,0.1959109149545576,0.35471956245086755,2074.4071499512443,5240.880826643012
1.921690235690236,851.1916983483378,850.8214739970198,0.19796290955088308,0.2981022562294824,0.1958977437705176,0.3547195624508678,2074.3840497652695,5241.937928515496
1.92269215969216,851.2318760047871,850.861622189865,0.19799937162587233,0.2981154482610389,0.19588455173896108,0.354719562450868,2074.3609130160285,5242.994698721508
1.923694083694084,851.2720721846191,850.9017843004931,0.19803589149491696,0.2981286612025684,0.1958713387974316,0.3547195624508682,2074.3377395939824,5244.051137526227
1.9246960076960078,851.3122871283498,850.941960790252,0.19807246933092307,0.29814189511662853,0.1958581048833715,0.35471956245086844,2074.314529389415,5245.10724519502
1.925697931697932,851.3525210670089,850.9821520996182,0.19810910530704648,0.2981551500658673,0.1958448499341327,0.35471956245086866,2074.2912822924513,5246.16302199342
1.926699855699856,851.3927742226293,851.0223586492718,0.1981457995966809,0.29816842611301886,0.1958315738869811,0.3547195624508689,2074.267998193066,5247.218468187108
1.9277017797017801,851.4330468087129,851.0625808411171,0.198182552373456,0.29818172332090265,0.19581827667909732,0.3547195624508691,2074.2446769810836,5248.273584041891
1.928703703703704,851.4733390306657,851.1028190592475,0.19821936381120064,0.29819504175241024,0.19580495824758978,0.35471956245086933,2074.221318546201,5249.328369823692
1.929705627705628,851.513651086218,851.1430736708652,0.1982562340839478,0.298208381470507,0.19579161852949303,0.3547195624508696,2074.197922777989,5250.382825798531
1.930707551707552,851.5539831658218,851.1833450271512,0.1982931633659286,0.29822174253822986,0.19577825746177013,0.35471956245086983,2074.174489565888,5251.436952232508
1.931709475709476,851.5943354530235,851.223633464091,0.19833015183155084,0.29823512501868005,0.19576487498131998,0.35471956245087005,2074.151018799231,5252.490749391792
1.9327113997113998,851.6347081248213,851.2639393032576,0.19836719965539462,0.29824852897502074,0.19575147102497928,0.3547195624508703,2074.1275103672383,5253.544217542605
1.9337133237133237,851.6751013520027,851.3042628525548,0.1984043070121998,0.2982619544704731,0.1957380455295269,0.3547195624508705,2074.10396415903,5254.597356951212
1.9347152477152476,851.7155152994653,851.3446044069215,0.1984414740768592,0.29827540156831367,0.19572459843168635,0.3547195624508707,2074.0803800636295,5255.650167883905
1.9357171717171717,851.7559501265206,851.3849642490011,0.19847870102441045,0.29828887033187124,0.19571112966812876,0.354719562450871,2074.0567579699677,5256.702650606994
1.9367190957190958,851.7964059871828,851.4253426497748,0.19851598803002776,0.2983023608245241,0.19569763917547586,0.3547195624508712,2074.033097766889,5257.7548053867995
1.93772101972102,851.836883030442,851.4657398691645,0.19855333526901484,0.2983158731096974,0.19568412689030257,0.35471956245087144,2074.0093993431556,5258.8066324896345
1.9387229437229438,851.8773814005236,851.5061561566017,0.1985907429167962,0.29832940725086005,0.19567059274913992,0.35471956245087166,2073.9856625874536,5259.858132181798
1.9397248677248677,851.9179012371371,851.5465917515714,0.19862821114892196,0.29834296331152627,0.19565703668847373,0.3547195624508719,2073.9618873883883,5260.909304729572
1.9407267917267919,851.9584426757033,851.5870468841217,0.19866574014103477,0.2983565413552438,0.19564345864475619,0.3547195624508721,2073.9380736345074,5261.960150399203
1.9417287157287157,851.9990058475819,851.6275217753542,0.1987033300688888,0.2983701414456008,0.19562985855439918,0.3547195624508724,2073.914221214287,5263.0106694568985
1.9427306397306396,852.0395908802797,851.668016637885,0.19874098110833802,0.2983837636462215,0.1956162363537785,0.3547195624508726,2073.8903300161405,5264.0608621688225
1.9437325637325638,852.080197897649,851.7085316762825,0.19877869343532628,0.2983974080207626,0.19560259197923743,0.3547195624508728,2073.866399928424,5265.110728801082
1.9447344877344876,852.120827020079,851.749067087484,0.19881646722589158,0.2984110746329149,0.1955889253670851,0.35471956245087305,2073.8424308394333,5266.16026961972
1.9457364117364115,852.1614783646717,851.7896230611884,0.19885430265614623,0.29842476354639613,0.1955752364536039,0.3547195624508733,2073.8184226374183,5267.209484890716
1.9467383357383357,852.2021520454156,851.8301997802325,0.19889219990229154,0.2984384748249561,0.19556152517504388,0.35471956245087355,2073.7943752105716,5268.258374879976
1.9477402597402598,852.242848173345,851.8707974209437,0.19893015914059936,0.29845220853237037,0.19554779146762966,0.35471956245087377,2073.770288447041,5269.306939853321
1.9487421837421839,852.2835668566935,851.9114161534775,0.19896818054741386,0.29846596473244036,0.19553403526755966,0.35471956245087405,2073.7461622349283,5270.355180076489
1.9497441077441078,852.3243082010395,851.9520561421368,0.19900626429914886,0.2984797434889929,0.19552025651100707,0.35471956245087427,2073.7219964622914,5271.403095815127
1.9507460317460317,852.3650723094436,851.9927175456739,0.19904441057228234,0.29849354486587804,0.19550645513412196,0.3547195624508745,2073.697791017148,5272.450687334786
1.9517479557479558,852.4058592825793,852.0334005175786,0.19908261954335146,0.2985073689269671,0.19549263107303289,0.3547195624508747,2073.6735457874775,5273.497954900919
1.95274987974988,852.4466692188593,852.0741052063505,0.19912089138896505,0.2985212157361575,0.19547878426384255,0.354719562450875,2073.6492606612137,5274.544898778869
1.953751803751804,852.4875022145471,852.1148317557555,0.19915922628576913,0.2985350853573599,0.19546491464264013,0.3547195624508752,2073.624935526267,5275.591519233872
1.9547537277537281,852.5283583638734,852.155580305073,0.19919762441046798,0.29854897785450624,0.19545102214549379,0.35471956245087544,2073.600570270512,5276.637816531052
1.955755651755652,852.5692377591413,852.1963509893278,0.1992360859398224,0.29856289329154884,0.19543710670845119,0.3547195624508757,2073.5761647817853,5277.683790935414
1.956757575757576,852.6101404908263,852.2371439395104,0.19927461105064165,0.29857683173245747,0.1954231682675425,0.35471956245087594,2073.551718947894,5278.729442711845
1.9577594997594998,852.6510666476709,852.2779592827858,0.19931319991977886,0.298590793241218,0.195409206758782,0.35471956245087616,2073.5272326566183,5279.774772125106
1.9587614237614237,852.6920163167752,852.3187971426926,0.1993518527241345,0.29860477788183315,0.19539522211816684,0.35471956245087644,2073.5027057957054,5280.819779439833
1.9597633477633478,852.7329895836824,852.3596576393304,0.19939056964065052,0.2986187857183208,0.1953812142816792,0.35471956245087666,2073.47813825288,5281.86446492053
1.9607652717652717,852.7739865324617,852.4005408895391,0.19942935084631616,0.29863281681471593,0.19536718318528407,0.35471956245087694,2073.4535299158333,5282.90882883157
1.9617671957671956,852.8150072457817,852.4414470070668,0.19946819651815184,0.2986468712350648,0.1953531287649352,0.35471956245087716,2073.428880672239,5283.95287143719
1.9627691197691197,852.8560518049866,852.4823761027313,0.1995071068332209,0.2986609490434291,0.1953390509565709,0.3547195624508774,2073.4041904097426,5284.996593001489
1.9637710437710438,852.897120290165,852.5233282845724,0.19954608196862622,0.298675050303885,0.19532494969611497,0.35471956245087766,2073.379459015965,5286.039993788427
1.964772967772968,852.9382127802154,852.564303657996,0.19958512210150395,0.2986891750805206,0.19531082491947938,0.3547195624508779,2073.354686378506,5287.083074061819
1.9657748917748918,852.9793293529077,852.6053023259111,0.19962422740902727,0.29870332343743744,0.19529667656256258,0.35471956245087816,2073.3298723849402,5288.125834085342
1.9667768157768157,853.0204700849433,852.6463243888595,0.19966339806840028,0.2987174954387481,0.1952825045612519,0.3547195624508784,2073.3050169228254,5289.168274122519
1.9677787397787398,853.0616350520114,852.6873699451397,0.19970263425686186,0.29873169114857795,0.19526830885142202,0.3547195624508786,2073.280119879696,5290.210394436729
1.968780663780664,853.1028243288431,852.7284390909236,0.19974193615169014,0.2987459106310665,0.1952540893689335,0.3547195624508789,2073.2551811430603,5291.252195291201
1.969782587782588,853.1440379892582,852.7695319203664,0.19978130393018226,0.29876015395036004,0.19523984604963993,0.3547195624508791,2073.2302006004165,5292.2936769490125
1.970784511784512,853.1852761062169,852.8106485257122,0.19982073776967108,0.2987744211706179,0.19522557882938205,0.3547195624508794,2073.2051781392393,5293.334839673087
1.9717864357864359,853.2265387518643,852.8517889973948,0.1998602378475223,0.2987887123560113,0.1952112876439887,0.3547195624508796,2073.180113646982,5294.375683726195
1.97278835978836,853.2678259975738,852.8929534241315,0.1998998043411337,0.2988030275707229,0.19519697242927708,0.3547195624508799,2073.155007011079,5295.416209370951
1.9737902837902839,853.3091379139854,852.9341418930117,0.19993943742792114,0.2988173668789421,0.19518263312105788,0.3547195624508801,2073.1298581189512,5296.456416869812
1.9747922077922078,853.3504745710486,852.975354489584,0.19997913728534134,0.2988317303448729,0.19516826965512704,0.3547195624508804,2073.1046668579957,5297.496306485078
1.9757941317941317,853.3918360380559,853.0165912979354,0.20001890409087097,0.29884611803272676,0.1951538819672732,0.3547195624508806,2073.0794331155957,5298.535878478889
1.9767960557960556,853.4332223836795,853.0578524007689,0.20005873802202043,0.29886053000672713,0.1951394699932729,0.3547195624508809,2073.054156779113,5299.575133113225
1.9777979797979797,853.474633676005,853.0991378794755,0.2000986392563294,0.2988749663311081,0.19512503366889192,0.3547195624508811,2073.0288377358906,5300.614070649906
1.9787999037999038,853.5160699825605,853.1404478142032,0.20013860797136215,0.2988894270701127,0.19511057292988734,0.3547195624508814,2073.0034758732577,5301.65269135059
1.979801827801828,853.5575313703481,853.1817822839224,0.20017864434471314,0.29890391228799484,0.19509608771200518,0.3547195624508816,2072.978071078522,5302.690995476771
1.980803751803752,853.5990179058709,853.2231413664871,0.20021874855399707,0.2989184220490158,0.19508157795098421,0.3547195624508819,2072.9526232389794,5303.7289832897795
1.981805675805676,853.6405296551625,853.2645251386954,0.2002589207768674,0.2989329564174508,0.19506704358254914,0.3547195624508821,2072.9271322419013,5304.766655050783
1.9828075998075998,853.6820666838101,853.3059336763436,0.20029916119100102,0.29894751545758375,0.19505248454241625,0.3547195624508824,2072.9015979745445,5305.804011020783
1.983809523809524,853.7236290569776,853.3473670542792,0.20033946997409588,0.2989620992337059,0.1950379007662941,0.35471956245088265,2072.876020324152,5306.8410514606185
1.984811447811448,853.7652168394325,853.3888253464523,0.20037984730388683,0.298976707810122,0.19502329218987802,0.3547195624508829,2072.850399177942,5307.877776630958
1.9858133718133721,853.8068300955638,853.4303086259621,0.20042029335813114,0.2989913412511449,0.19500865874885512,0.35471956245088315,2072.8247344231218,5308.914186792307
1.986815295815296,853.8484688894048,853.4718169651019,0.2004608083146154,0.299005999621098,0.19499400037890202,0.3547195624508834,2072.7990259468775,5309.9502822050035
1.98781721981722,853.8901332846526,853.513350435403,0.2005013923511584,0.29902068298431644,0.19497931701568355,0.35471956245088365,2072.7732736363746,5310.986063129217
1.988819143819144,853.9318233446855,853.5549091076743,0.20054204564560302,0.29903539140514407,0.19496460859485595,0.35471956245088393,2072.747477378766,5312.02152982495
1.989821067821068,853.9735391325818,853.5964930520411,0.20058276837582276,0.2990501249479357,0.19494987505206432,0.35471956245088415,2072.7216370611814,5313.056682552038
1.9908229918229918,854.0152807111346,853.6381023379811,0.20062356071971502,0.2990648836770549,0.1949351163229451,0.35471956245088443,2072.6957525707385,5314.091521570145
1.991824915824916,854.0570481428701,853.67973703436,0.20066442285521072,0.2990796676568773,0.19492033234312264,0.3547195624508847,2072.669823794532,5315.126047138771
1.9928268398268398,854.0988414900622,853.721397209464,0.20070535496027053,0.2990944769517895,0.19490552304821054,0.35471956245088493,2072.6438506196387,5316.160259517243
1.9938287638287637,854.1406608147448,853.7630829310306,0.20074635721288056,0.29910931162618687,0.19489068837381313,0.3547195624508852,2072.6178329331183,5317.19415896472
1.9948306878306878,854.1825061787285,853.8047942662788,0.20078742979106307,0.2991241717444783,0.19487582825552172,0.3547195624508855,2072.591770622008,5318.227745740193
1.995832611832612,854.22437764361,853.8465312819364,0.2008285728728627,0.29913905737108054,0.19486094262891948,0.3547195624508857,2072.565663573331,5319.261020102483
1.996834535834536,854.2662752707878,853.8882940442678,0.2008697866363641,0.29915396857042487,0.19484603142957513,0.354719562450886,2072.539511674085,5320.29398231024
1.99783645983646,854.3081991214722,853.9300826190982,0.2009110712596804,0.2991689054069529,0.1948310945930471,0.35471956245088626,2072.5133148112504,5321.3266326219455
1.9988383838383839,854.3501492566949,853.9718970718375,0.20095242692095247,0.29918386794511626,0.19481613205488374,0.3547195624508865,2072.487072871788,5322.358971295911
1.999840307840308,854.3921257373227,854.0137374675044,0.20099385379835993,0.2991988562493806,0.19480114375061944,0.35471956245088676,2072.460785742635,5323.390998590278
2.000842231842232,854.4341286240635,854.0556038707456,0.20103535207010692,0.2992138703842203,0.19478612961577968,0.35471956245088704,2072.434453310714,5324.422714763019
2.001844155844156,854.4761579774798,854.097496345859,0.2010769219144381,0.29922891041412475,0.19477108958587522,0.3547195624508873,2072.4080754629213,5325.454120071936
2.00284607984608,854.5182138579949,854.139414956811,0.2011185635096285,0.299243976403594,0.19475602359640598,0.35471956245088754,2072.3816520861333,5326.485214774658
2.0038480038480038,854.5602963259021,854.181359767256,0.20116027703398817,0.2992590684171409,0.1947409315828591,0.3547195624508878,2072.3551830672045,5327.515999128648
2.0048499278499277,854.6024054413729,854.2233308405533,0.20120206266586033,0.29927418651929033,0.1947258134807097,0.3547195624508881,2072.328668292969,5328.5464733911995
2.0058518518518516,854.6445412644649,854.2653282397843,0.20124392058362436,0.2992893307745801,0.19471066922541988,0.35471956245088837,2072.302107650237,5329.576637819431
2.0068537758537754,854.6867038551286,854.3073520277675,0.20128585096569535,0.29930450124756114,0.19469549875243886,0.3547195624508886,2072.2755010257965,5330.606492670297
2.0078556998557,854.7288932732155,854.3494022670744,0.20132785399052697,0.29931969800279823,0.1946803019972018,0.35471956245088887,2072.248848306411,5331.636038200577
2.008857623857624,854.7711095784816,854.3914790200422,0.20136992983660262,0.2993349211048669,0.19466507889513313,0.35471956245088915,2072.2221493788256,5332.665274666884
2.009859547859548,854.8133528305975,854.4335823487887,0.20141207868244804,0.299350170618358,0.194649829381642,0.3547195624508894,2072.195404129757,5333.694202325661
2.010861471861472,854.8556230891526,854.4757123152249,0.20145430070662868,0.29936544660787684,0.19463455339212316,0.3547195624508897,2072.1686124458993,5334.72282143318
2.011863395863396,854.8979204136606,854.517868981066,0.20149659608774692,0.29938074913804197,0.19461925086195803,0.3547195624508899,2072.141774213921,5335.751132245544
2.0128653198653197,854.940244863565,854.5600524078445,0.20153896500444507,0.29939607827348647,0.19460392172651356,0.3547195624508902,2072.114889320465,5336.779135018687
2.013867243867244,854.9825964982441,854.6022626569195,0.20158140763540258,0.2994114340788568,0.1945885659211432,0.3547195624508905,2072.0879576521525,5337.806830008375
2.0148691678691684,855.0249753770169,854.6444997894883,0.20162392415934416,0.2994268166188158,0.1945731833811842,0.35471956245089076,2072.060979095575,5338.834217470202
2.0158710918710923,855.0673815591457,854.6867638665959,0.20166651475503267,0.29944222595804015,0.19455777404195987,0.35471956245089103,2072.0339535372996,5339.861297659594
2.016873015873016,855.1098151038415,854.7290549491435,0.2017091796012695,0.29945766216122044,0.19454233783877956,0.3547195624508913,2072.006880863869,5340.888070831809
2.01787493987494,855.152276070269,854.7713730978986,0.20175191887690241,0.2994731252930641,0.19452687470693591,0.3547195624508916,2071.9797609617963,5341.914537241937
2.018876863876864,855.1947645175508,854.8137183735037,0.20179473276082752,0.29948861541829597,0.19451138458170406,0.35471956245089187,2071.9525937175654,5342.940697144898
2.019878787878788,855.2372805047677,854.8560908364819,0.20183762143197162,0.299504132601652,0.194495867398348,0.3547195624508921,2071.9253790176385,5343.966550795444
2.0208807118807117,855.279824090968,854.898490547248,0.201880585069322,0.29951967690789005,0.19448032309210994,0.35471956245089237,2071.8981167484408,5344.992098448159
2.0218826358826356,855.3223953351647,854.9409175661124,0.20192362385189688,0.29953524840177925,0.19446475159822077,0.35471956245089264,2071.870806796378,5346.017340357458
2.0228845598845595,855.3649942963433,854.9833719532895,0.20196673795876444,0.29955084714810665,0.19444915285189338,0.3547195624508929,2071.843449047823,5347.042276777592
2.023886483886484,855.4076210334625,855.0258537689048,0.20200992756903977,0.29956647321167634,0.19443352678832368,0.3547195624508932,2071.81604338912,5348.06690796264
2.024888407888408,855.4502756054593,855.0683630729999,0.20205319286188694,0.29958212665731015,0.19441787334268984,0.3547195624508935,2071.7885897065817,5349.0912341665135
2.025890331890332,855.4929580712509,855.1108999255398,0.202096534016521,0.2995978075498484,0.1944021924501516,0.35471956245089376,2071.7610878864884,5350.115255642962
2.026892255892256,855.5356684897347,855.1534643864162,0.20213995121219605,0.2996135159541455,0.19438648404585454,0.35471956245089403,2071.733537815095,5351.138972645564
2.02789417989418,855.5784069197942,855.1960565154549,0.2021834446282173,0.29962925193507417,0.19437074806492582,0.3547195624508943,2071.705939378626,5352.16238542773
2.0288961038961038,855.6211734203027,855.2386763724206,0.20222701444395152,0.29964501555752976,0.19435498444247026,0.3547195624508946,2071.6782924632653,5353.185494242709
2.0298980278980276,855.6639680501202,855.2813240170208,0.2022706608388022,0.2996608068864206,0.1943391931135794,0.35471956245089487,2071.6505969551727,5354.208299343579
2.0308999518999515,855.7067908681008,855.3239995089107,0.20231438399223392,0.29967662598667727,0.19432337401332272,0.35471956245089514,2071.622852740471,5355.230800983255
2.0319018759018754,855.7496419330924,855.3667029076981,0.20235818408375902,0.2996924729232476,0.19430752707675242,0.3547195624508954,2071.5950597052515,5356.252999414484
2.0329037999037993,855.7925213039382,855.4094342729468,0.20240206129294103,0.2997083477610979,0.1942916522389021,0.3547195624508957,2071.5672177355736,5357.27489488985
2.0339057239057237,855.8354290394815,855.4521936641813,0.20244601579940488,0.2997242505652168,0.1942757494347832,0.354719562450896,2071.5393267174577,5358.296487661769
2.034907647907648,855.878365198564,855.4949811408898,0.20249004778282356,0.29974018140061015,0.19425981859938984,0.35471956245089625,2071.5113865368935,5359.317777982494
2.035909571909572,855.9213298400285,855.537796762527,0.20253415742292055,0.29975614033230225,0.19424385966769772,0.35471956245089653,2071.483397079839,5360.3387661041115
2.036911495911496,855.9643230227231,855.5806405885202,0.20257834489948426,0.29977212742534076,0.1942278725746592,0.3547195624508968,2071.45535823221,5361.359452278545
2.0379134199134197,856.0073448055008,855.6235126782705,0.2026226103923603,0.29978814274479415,0.19421185725520584,0.3547195624508971,2071.4272698798877,5362.379836757554
2.0389153439153436,856.0503952472208,855.6664130911557,0.20266695408144778,0.29980418635575007,0.1941958136442499,0.3547195624508974,2071.3991319087177,5363.3999197927305
2.039917267917268,856.0934744067491,855.7093418865338,0.20271137614670004,0.299820258323316,0.194179741676684,0.3547195624508977,2071.3709442045124,5364.419701635508
2.0409191919191922,856.1365823429626,855.7522991237458,0.20275587676813397,0.29983635871262226,0.19416364128737776,0.354719562450898,2071.3427066530435,5365.439182537152
2.041921115921116,856.1797191147492,855.7952848621189,0.2028004561258285,0.29985248758882166,0.19414751241117834,0.35471956245089825,2071.3144191400424,5366.458362748767
2.04292303992304,856.2228847810088,855.838299160968,0.20284511439992164,0.29986864501708843,0.1941313549829116,0.35471956245089853,2071.286081551204,5367.477242521294
