z,T,t,fs,x,y,w,rhob,p
0.0,556.2444807098805,298.0,0.0,0.2264792614123079,0.2675207385876921,0.3547192898047623,2200.0,2040.0
0.0022839912280701756,577.1471486727299,346.1187500407452,5.149901961838842e-07,0.22647944773650697,0.267520552263493,0.3547192898047623,2199.9996732166496,2044.7449497248451
0.004567982456140351,595.7483446811559,388.58515544255215,2.146092387257067e-06,0.2264800378716428,0.26751996212835716,0.3547192898047623,2199.998638212405,2049.7509902325164
0.009135964912280702,627.2046713890164,459.68246129744597,1.2417335024507099e-05,0.22648375402210977,0.26751624597789025,0.3547192898047623,2199.9921206687554,2060.439087379339
0.013703947368421053,652.4944230143342,516.2214430580058,3.756682915692606e-05,0.22649285314552303,0.26750714685447696,0.3547192898047623,2199.9761622368933,2071.8744713068363
0.018271929824561405,672.975967344647,561.6216868409145,8.180808275473522e-05,0.22650885969517068,0.26749114030482934,0.3547192898047623,2199.948089265432,2083.902209754968
0.022839912280701757,689.6586232851323,598.3476541331459,0.0001466505155902426,0.2265323197813132,0.2674676802186868,0.3547192898047623,2199.9069439628356,2096.3959794359926
0.027407894736842107,703.3090352031576,628.2273289561538,0.00023178534871540383,0.22656312168727977,0.2674368783127202,0.3547192898047623,2199.852922262582,2109.2528124995843
0.031975877192982456,714.5197111827856,652.6471746134222,0.0003359141092053643,0.226600795623685,0.26739920437631504,0.3547192898047623,2199.7868481013907,2122.3887766965536
0.03654385964912281,723.7549422464294,672.6773874627243,0.0004573006258742449,0.22664471344127848,0.26735528655872154,0.3547192898047623,2199.7098231542845,2135.7354562289283
0.04111184210526316,731.382596402658,689.1556501693531,0.0005940933936333959,0.22669420526283673,0.26730579473716326,0.3547192898047623,2199.6230222805943,2149.2370930136162
0.045679824561403515,737.6967555533121,702.7450301522781,0.000744498317617835,0.2267486219822384,0.2672513780177616,0.3547192898047623,2199.527583910401,2162.848264701349
0.05024780701754386,742.934220338597,713.9751433364946,0.0009068624867377183,0.2268073655738564,0.26719263442614355,0.3547192898047623,2199.4245568866295,2176.5319967697355
0.054815789473684214,747.2867907249984,723.2721258967813,0.0010797075707959386,0.22686990117568367,0.2671300988243163,0.3547192898047623,2199.314879273148,2190.2582253702712
0.059383771929824566,750.9105633210955,730.9809053164994,0.0012617358249412687,0.22693575926175283,0.26706424073824714,0.3547192898047623,2199.199374544682,2204.00254389312
0.06395175438596491,753.9330751613066,737.3820396466282,0.001451821967700132,0.22700453270359652,0.26699546729640344,0.3547192898047623,2199.0787567405528,2217.7451794307094
0.06851973684210527,756.4588625671677,742.7046406139128,0.0016489984404866296,0.22707587143711658,0.26692412856288344,0.35471928980476236,2198.9536398181494,2231.470155900346
0.07308771929824562,758.5738334919818,747.1364182449255,0.001852438214992682,0.2271494762422729,0.2668505237577271,0.35471928980476236,2198.824548562378,2245.1646090159957
0.08222368421052632,761.8418779427482,753.9169117206468,0.00227539962174857,0.2273025042920164,0.2666974957079835,0.35471928980476236,2198.5561614228736,2272.422790554703
0.08679166666666668,763.1016218128764,756.49744956415,0.002493817523238721,0.22738152820521565,0.2666184717947843,0.35471928980476236,2198.4175659036114,2285.9717726706617
0.09135964912280703,764.167775644525,758.6594931624488,0.002716264979974366,0.22746201001734065,0.2665379899826593,0.35471928980476236,2198.27641345885,2299.460075351247
0.10049561403508772,765.845711672636,762.0017673105515,0.0031718639030174933,0.22762684636776156,0.26637315363223846,0.35471928980476236,2197.987316416511,2326.2397438890216
0.10506359649122807,766.5075735488348,763.2903044594974,0.0034044552419514,0.22771099825116217,0.26628900174883785,0.3547192898047624,2197.8397272437574,2339.5258276602417
0.10963157894736843,767.0777255484425,764.380733753258,0.0036399407015325707,0.22779619723160593,0.2662038027683941,0.3547192898047624,2197.690301627419,2352.7403654388613
0.11648355263157895,767.7944060685943,765.7170555162929,0.0039982070729029555,0.2279258185238179,0.2660741814761821,0.3547192898047624,2197.4629662605116,2372.42568875701
0.12333552631578948,768.3812176552572,766.7727124033865,0.0043620895007365325,0.22805747171339472,0.2659425282866053,0.3547192898047624,2197.23206726509,2391.945492287648
0.1301875,768.8699114048749,767.6161893314168,0.00473120656571465,0.22819101880227424,0.2658089811977258,0.35471928980476247,2196.9978466680586,2411.299199482244
0.13703947368421054,769.2845145949254,768.2992919301759,0.00510526428175735,0.22832635342586685,0.26567364657413317,0.35471928980476247,2196.760491016185,2430.4873482816015
0.14389144736842108,769.6432125467269,768.8612190176804,0.005484036039008174,0.22846339359639822,0.26553660640360177,0.35471928980476247,2196.5201441031336,2449.5112742532665
0.1507434210526316,769.9597698197176,769.3316343740001,0.005867347110338069,0.22860207609733985,0.26539792390266015,0.35471928980476247,2196.2769168007567,2468.372875334828
0.15759539473684214,770.2446046506753,769.73298688898,0.006255062703801012,0.2287423521607704,0.26525764783922956,0.3547192898047625,2196.0308946403225,2487.0744375075606
0.16444736842105265,770.5056018453802,770.0822647075705,0.0066470787619764896,0.22888418413856446,0.26511581586143557,0.3547192898047625,2195.782143650722,2505.618505954511
0.17815131578947369,770.9784880541705,770.6728639739536,0.007443709028027115,0.2291724061229658,0.2648275938770342,0.3547192898047626,2195.276647605616,2542.245095654162
0.18500328947368422,771.1983189187446,770.9312938927816,0.00784821273357821,0.2293187561496722,0.2646812438503278,0.3547192898047626,2195.0199726685705,2560.3332676129703
0.19185526315789475,771.4107908108263,771.173148325151,0.008256788870626496,0.22946657958799432,0.2645334204120056,0.3547192898047626,2194.7607135992075,2578.2751632638356
0.20555921052631582,771.8209912412809,771.6229268971933,0.009086049198531438,0.22976660717604847,0.2642333928239516,0.35471928980476264,2194.2345123814234,2613.7314345766054
0.21926315789473685,772.2196715037854,772.0449915147497,0.009931327842235327,0.23007243021396567,0.2639275697860343,0.3547192898047627,2193.6981468557656,2648.6360786032515
0.24667105263157896,773.0040174242711,772.8523707311209,0.01166959186711899,0.23070133665653558,0.2632986633434644,0.35471928980476275,2192.5951438349475,2716.8744382355844
0.2740789473684211,773.7872897217609,773.6457706349869,0.013471201062011523,0.23135316147338808,0.26264683852661186,0.35471928980476286,2191.4519455889654,2783.147316839135
0.3014868421052632,774.5771021900199,774.441520975905,0.015336072784439532,0.2320278747643566,0.26197212523564334,0.35471928980476297,2190.268604558011,2847.5947523770224
0.3288947368421053,775.3759765912536,775.2449682611111,0.017264269693970106,0.23272549919976326,0.26127450080023673,0.3547192898047631,2189.0450809819035,2910.341322457367
0.35630263157894737,776.1847891128572,776.0579023240449,0.01925594523200333,0.23344609029492894,0.2605539097050711,0.3547192898047632,2187.781277495498,2971.498166590647
0.3837105263157895,777.0038899299603,776.8809695539968,0.021311321815011025,0.23418972852045536,0.2598102714795447,0.3547192898047633,2186.477052966012,3031.1648586184488
0.41111842105263163,777.8334651472359,777.7144535006444,0.023430680569550066,0.23495651558833805,0.259043484411662,0.3547192898047634,2185.132229006596,3089.431011539927
0.4385263157894737,778.6736531788314,778.5585261650613,0.025614355361316857,0.2357465722916697,0.2582534277083304,0.3547192898047636,2183.7465937651573,3146.377623980613
0.4659342105263158,779.5245819123138,779.4133284633689,0.02786272861005615,0.23656003699046796,0.257439963009532,0.35471928980476375,2182.3199045799793,3202.078206421966
0.4933421052631579,780.3863804509865,780.2789958205113,0.030176227993279372,0.2373970644190762,0.2566029355809238,0.3547192898047639,2180.85189007135,3256.5997262612673
0.52075,781.2591827504136,781.1556662319534,0.03255532369247872,0.2382578246898394,0.2557421753101606,0.3547192898047641,2179.342251888964,3310.0034050388426
0.5481578947368422,782.1431286958457,782.0434827600918,0.035000526027700526,0.23914250243728966,0.25485749756271037,0.35471928980476425,2177.79066621288,3362.345394838544
0.5755657894736843,783.0383643878606,782.9425942821463,0.037512383396959635,0.24005129607262327,0.25394870392737673,0.35471928980476447,2176.196785061055,3413.6773554383526
0.6029736842105263,783.9450421960361,783.8531557004769,0.04009148046581225,0.2409844171286855,0.2530155828713145,0.35471928980476464,2174.560237438136,3464.0469494433196
0.6303815789473685,784.8633207573371,784.7753279973402,0.04273843656633068,0.24194208968071743,0.2520579103192826,0.35471928980476486,2172.8806303513816,3513.498269224709
0.6577894736842106,785.7933649763902,785.709278254256,0.04545390427288427,0.24292454983107134,0.2510754501689287,0.35471928980476514,2171.157549714386,3562.072206822475
0.6851973684210526,786.7353460504635,786.6551796748813,0.04823856812772742,0.24393204524812656,0.2500679547518735,0.35471928980476536,2169.390561155751,3609.8067758743273
0.7126052631578947,787.689441537509,787.6132116271531,0.05109314349363298,0.24496483475117073,0.2490351652488293,0.35471928980476564,2167.57921074714,3656.737392980888
0.7400131578947369,788.6558354967967,788.583559717691,0.05401837551421445,0.24602318793424277,0.24797681206575722,0.35471928980476597,2165.723025662994,3702.897124602411
0.767421052631579,789.6347187605895,789.5664159193616,0.057015038165459886,0.24710738482297648,0.24689261517702352,0.35471928980476625,2163.82151478238,3748.3169045327404
0.7948289473684211,790.6262894568015,790.561978792833,0.06008393338461738,0.2482177155594301,0.24578228444056993,0.3547192898047666,2161.874169241744,3793.0257261545844
0.8222368421052632,791.6307540315813,791.5704538846035,0.06322589026526981,0.24935448011086303,0.244645519889137,0.3547192898047669,2159.880462945675,3837.050813006587
0.8496447368421053,792.6483292940044,792.5920544698233,0.06644176431079558,0.25051798799963704,0.24348201200036299,0.3547192898047673,2157.8398530406157,3880.4177706610644
0.8770526315789474,793.6792465912354,793.6270029868197,0.06973243674356154,0.25170855805328113,0.24229144194671887,0.3547192898047677,2155.7517803532073,3923.15072251227
0.9044605263157895,794.7237604962213,794.6755338865787,0.07309881387648601,0.2529265181771222,0.2410734818228778,0.35471928980476813,2153.6156697890606,3965.2724318241917
0.9318684210526317,795.78216719113,795.7378994253613,0.07654182657210336,0.2541722051585738,0.23982779484142613,0.3547192898047686,2151.4309306760047,4006.804412346792
0.9592763157894737,796.8548439550856,796.8143816807909,0.08006242985313121,0.25544596452623886,0.2385540354737611,0.354719289804769,2149.196957011194,4047.767030140705
0.9866842105263158,797.9423350959893,797.9053179788474,0.08366160281310127,0.25674815051757555,0.2372518494824244,0.3547192898047695,2146.913127517824,4088.179600327535
1.014092105263158,799.0455408108926,799.0111559591859,0.08734034916536416,0.2580791262775283,0.23592087372247164,0.3547192898047701,2144.578805296755,4128.060485150636
1.0415,800.1661337703928,800.1325767132796,0.09109969921193753,0.25943926457085986,0.2345607354291401,0.35471928980477063,2142.1933365772024,4167.42720583126
1.0689078947368422,801.307468839271,801.2707840483976,0.09494071511352604,0.26082894968885195,0.23317105031114807,0.35471928980477124,2139.756047372677,4206.296593958343
1.0963157894736844,802.476489789042,802.428233415261,0.09886450431049912,0.2622485823050346,0.23175141769496535,0.3547192898047719,2137.266234964804,4244.685034521324
1.1145877192982458,803.2777368112729,803.2131072195377,0.10152693017960653,0.26321185184175416,0.23078814815824583,0.35471928980477235,2135.576811646889,4270.01819934859
1.1328596491228071,804.1042649089438,804.0122423118204,0.10422705653735594,0.2641887614698842,0.22981123853011584,0.35471928980477285,2133.863465753196,4295.149853630539
1.1511315789473684,804.96593772183,804.8317256989343,0.10696532719452662,0.26517947176080764,0.22882052823919244,0.35471928980477335,2132.1259156667643,4320.085243191615
1.1694035087719297,805.875037375681,805.6818100585224,0.10974228339310782,0.2661841785366602,0.22781582146333976,0.35471928980477385,2130.3638179463564,4344.830003404796
1.1876754385964912,806.8440165015481,806.57724004224,0.11255861900927928,0.26720313284284924,0.22679686715715075,0.3547192898047744,2128.5767322977977,4369.39021548525
1.2059473684210527,807.8817337245309,807.5344099528779,0.11541522552151454,0.2682366572175779,0.22576334278242208,0.35471928980477496,2126.764093039791,4393.772309374976
1.224219298245614,808.990277170019,808.5654783597287,0.1183131857994686,0.26928514344465626,0.22471485655534376,0.3547192898047756,2124.925213045132,4417.982793428081
1.2424912280701754,810.1646998946385,809.6735418959904,0.1212536983277849,0.2703490251375646,0.22365097486243543,0.3547192898047762,2123.0593318239494,4442.027909070927
1.260763157894737,811.3956326244463,810.8526611710517,0.12423796475220795,0.27142873705347415,0.22257126294652588,0.35471928980477685,2121.1656868805203,4465.9133627345045
1.2790350877192982,812.6726619587,812.091780661638,0.12726709370682118,0.2725246802978026,0.22147531970219747,0.35471928980477757,2119.243574739006,4489.644219799062
1.2973070175438597,813.9866725227788,813.3790436799977,0.13034204487741563,0.27363720208625936,0.22036279791374064,0.35471928980477835,2117.2923864376417,4513.22494068342
1.3155789473684212,815.3307608878823,814.7043968996453,0.13346359864136795,0.2747665847605101,0.21923341523948991,0.3547192898047791,2115.3116267935384,4536.659489669101
1.3338508771929825,816.7001778539534,816.0604102271477,0.13663231524186284,0.27591303101735054,0.21808696898264948,0.35471928980477996,2113.3009403083847,4559.9514561043015
1.352122807017544,818.0918467581284,817.4420487329373,0.13984843481615958,0.2770766277387891,0.21692337226121097,0.3547192898047809,2111.2601746047976,4583.104156157238
1.3703947368421054,819.5037894784912,818.8460472301435,0.14311164416575684,0.2782572616091541,0.21574273839084593,0.35471928980478185,2109.189528420649,4606.120705419431
1.3886666666666667,820.9345730105805,820.2702204253873,0.14642057435298217,0.2794544373448125,0.21454556265518754,0.35471928980478284,2107.0898704055608,4629.004062946741
1.4069385964912282,822.3827397802823,821.7127844003991,0.1497717637868939,0.28066690253714643,0.2133330974628536,0.35471928980478395,2104.9633970873388,4651.757048741015
1.4252105263157895,823.8460751741135,823.1715968330583,0.15315758533252846,0.28189189767767603,0.21210810232232402,0.3547192898047851,2102.8149482099966,4674.382332431701
1.443482456140351,825.320463375138,824.6431000499983,0.15656230465047727,0.28312373005960756,0.21087626994039244,0.35471928980478634,2100.6545078862155,4696.882382330604
1.4617543859649125,826.7980431108665,826.1206843384535,0.1599553549587374,0.2843513405769278,0.20964865942307215,0.3547192898047877,2098.5014720491827,4719.259352350159
1.4800263157894737,828.264735203272,827.5924129551347,0.16328252508616828,0.2855551155493779,0.20844488445062204,0.35471928980478906,2096.390240010322,4741.514878237565
1.4982982456140352,829.6986873986388,829.0391564784884,0.16646180887853126,0.2867053850315452,0.2072946149684548,0.35471928980479056,2094.3728481890485,4763.649785914155
1.5165701754385967,831.0733363071196,830.4361327379197,0.16939846603861464,0.28776787184664027,0.20623212815335976,0.35471928980479217,2092.50941336424,4785.663829577731
1.534842105263158,832.3667771612428,831.7601727379453,0.17202297712398254,0.28871742375967135,0.20528257624032867,0.35471928980479384,2090.8440486015274,4807.555710754089
1.5531140350877195,833.5706723722302,832.9985553428411,0.1743212011861524,0.2895489245549902,0.20445107544500982,0.3547192898047956,2089.385726938764,4829.323515909444
1.571385964912281,834.6905267457572,834.151837226032,0.17632751415018774,0.2902748114920881,0.20372518850791188,0.3547192898047975,2088.1126353782424,4850.965340959681
1.5896578947368423,835.7394866447104,835.2299425493538,0.17809692967395818,0.2909149885920852,0.20308501140791482,0.35471928980479944,2086.989865396316,4872.479745679708
1.6079298245614035,836.7323597694572,836.2465422151115,0.17968375655101837,0.291489104855171,0.20251089514482895,0.3547192898048015,2085.9829557359553,4893.865921733943
1.626201754385965,837.6824765754174,837.215179753694,0.18113314219850885,0.292013494682276,0.20198650531772397,0.35471928980480366,2085.0632584260948,4915.123666443578
1.6444736842105263,838.6007262680168,838.1475298988142,0.1824801189148557,0.29250083280972483,0.2014991671902752,0.3547192898048059,2084.208543971999,4936.25327843148
1.6627456140350878,839.4956265318183,839.0529996480434,0.18375124865405115,0.29296072939095436,0.20103927060904567,0.3547192898048082,2083.401957675491,4957.255442486229
1.6810175438596493,840.373732918123,839.9389340724637,0.1849666379874149,0.2934004590125981,0.20059954098740188,0.35471928980481066,2082.6307410553572,4978.131130028742
1.6992894736842106,841.2400830996593,840.8110045682215,0.18614163294122127,0.2938255738891953,0.20017442611080472,0.3547192898048132,2081.8851564002407,4998.8815209698605
1.717561403508772,842.0985733718402,841.6735929051767,0.1872880920658299,0.29424036446144636,0.19975963553855364,0.3547192898048159,2081.157678951714,5019.507944919916
1.7358333333333336,842.9522492169908,842.5301092254928,0.18841530490418018,0.2946481916994453,0.19935180830055463,0.3547192898048186,2080.442414096659,5040.011837710743
1.7541052631578948,843.8035206136517,843.3832361609041,0.1895306474359958,0.2950517242433425,0.1989482757566575,0.3547192898048215,2079.7346814598277,5060.394709363888
1.7723771929824563,844.6543190913505,844.2351099292313,0.19064005114814975,0.2954531081136819,0.1985468918863181,0.3547192898048244,2079.0307172585926,5080.658120412509
1.7906491228070178,845.506212054902,845.0874529570991,0.19174834203922755,0.2958540893637436,0.1981459106362564,0.35471928980482753,2078.327459190022,5100.803664278333
1.808921052631579,846.360487005003,845.9416712482064,0.19285949119070714,0.2962561047365595,0.1977438952634405,0.35471928980483075,2077.622387432731,5120.83295405284
1.8363289473684212,847.649042802944,847.2292331052064,0.19454037031256594,0.29686424923807175,0.1971357507619282,0.3547192898048358,2076.5557975922347,5150.662464147217
1.8408969298245617,847.865277967754,847.4450515864877,0.19482472069351223,0.2969671276178592,0.19703287238214076,0.3547192898048367,2076.37536508908,5155.609364313356
1.845464912280702,848.0825788397831,847.6616525542115,0.1951130216634753,0.29707143532647645,0.19692856467352354,0.3547192898048376,2076.1924257678816,5160.549286203666
1.8477489035087724,848.1917199520535,847.7703262595809,0.19525898905952752,0.2971242465418428,0.1968757534581572,0.354719289804838,2076.0998031993413,5163.016640821594
1.8500328947368425,848.3008264011727,847.8790736279765,0.19540442987062914,0.29717686723801107,0.19682313276198896,0.35471928980483847,2076.0075147715197,5165.482263120928
1.8523168859649126,848.4075202768139,847.9866053691229,0.1955383165241066,0.2972253076232115,0.19677469237678855,0.3547192898048389,2075.922557951889,5167.946151504838
1.8534588815789477,848.4582957354959,848.0389654757655,0.19559332915855923,0.2972452112740575,0.1967547887259425,0.35471928980483913,2075.8876500776446,5169.177440026194
1.8546008771929827,848.5071841971888,848.0902067898382,0.19563983701578508,0.29726203788418143,0.1967379621158186,0.35471928980483936,2075.858138849041,5170.408285983158
1.8561235380116963,848.5705870929609,848.1572889857488,0.19569432065042444,0.2972817501421286,0.19671824985787142,0.3547192898048397,2075.8235666478495,5172.048720016469
1.8576461988304096,848.6330715382787,848.2234893779372,0.19574558732830957,0.2973002985004614,0.19669970149953858,0.35471928980483997,2075.7910357435876,5173.688357828836
1.8606915204678363,848.7569969889701,848.3541734646807,0.1958464076636545,0.2973367754438554,0.19666322455614466,0.3547192898048406,2075.7270609199395,5176.965241560355
1.8637368421052634,848.8801647224014,848.4830782105805,0.1959474140519956,0.2973733197014929,0.19662668029850713,0.3547192898048412,2075.6629680376923,5180.238936832609
1.870588815789474,849.1554218371733,848.7681492590011,0.1961765662954105,0.29745622731515087,0.19654377268484916,0.3547192898048426,2075.517561118435,5187.593109729872
1.8774407894736842,849.4289617780618,849.0483044394468,0.19640819418378314,0.2975400306207412,0.1964599693792589,0.354719289804844,2075.3705832963533,5194.931203357345
1.8911447368421053,849.9738552788863,849.6004209070045,0.19687868963949784,0.2977102565582616,0.19628974344173838,0.3547192898048469,2075.072033765611,5209.559398890234
1.9185526315789474,851.0660151108165,850.6958289014209,0.19784965367879276,0.29806155275438856,0.19593844724561144,0.35471928980485284,2074.455915469934,5238.625910084986
1.9459605263157895,852.1706096989384,851.7987220014122,0.1988633521979468,0.2984283103472412,0.19557168965275876,0.3547192898048592,2073.8126803153086,5267.44362558257
1.9733684210526317,853.2917879872357,852.9168390682761,0.19992334328290448,0.29881181665746914,0.19518818334253082,0.35471928980486583,2073.140070543713,5296.017970909339
2.000776315789474,854.4314217663838,854.052903149165,0.20103324678307408,0.2992133813518326,0.1947866186481673,0.35471928980487283,2072.435789205563,5324.354351127878
2.028184210526316,855.590850104774,855.2084550206625,0.20219670327741607,0.29963432159707404,0.19436567840292598,0.3547192898048802,2071.6975261974817,5352.458088498528
2.055592105263158,856.7712961424608,856.3847656786783,0.2034173733403849,0.3000759617943342,0.19392403820566578,0.354719289804888,2070.9229587280975,5380.334411519357
2.083,857.9739685466103,857.5830548705221,0.204698946472301,0.30053963681017437,0.1934603631898256,0.3547192898048962,2070.1097456513335,5407.988455968993
2.1378157894736844,860.4509000335777,860.050480743959,0.20745977696345094,0.3015385092816985,0.19246149071830154,0.3547192898049141,2068.357880383392,5462.649812148128
2.1926315789473687,863.0317204682474,862.6207959713978,0.2105097725806771,0.3026420021147722,0.19135799788522773,0.354719289804934,2066.422527450164,5516.481546206938
2.247447368421053,865.7270522441244,865.3045891368,0.21388086358233316,0.30386166772312795,0.19013833227687207,0.3547192898049563,2064.2834257342847,5569.521844276346
2.302263157894737,868.5482524593248,868.1131653419529,0.21760686997406659,0.3052097422338062,0.18879025776619382,0.35471928980498135,2061.9191149927415,5621.807840744613
2.329671052631579,870.0098525674341,869.5680251605744,0.21961419176643093,0.30593599416644335,0.18806400583355665,0.354719289804995,2060.6453832874095,5647.679331013592
2.357078947368421,871.5076141721229,871.0587473449333,0.2217240701093916,0.30669935120766756,0.1873006487923325,0.3547192898050095,2059.3065750554433,5673.375773845372
2.384486842105263,873.0431936706965,872.5869910442412,0.22394127904661473,0.3075015406133937,0.18649845938660628,0.35471928980502493,2057.899660961535,5698.901584109853
2.4118947368421053,874.6184534086188,874.1545762245929,0.2262713343082054,0.3083445579827649,0.18565544201723505,0.3547192898050413,2056.4211410385446,5724.261140093415
2.4667105263157896,877.8957365012589,877.4154819267842,0.2312921896322317,0.3101611107130907,0.18383888928690925,0.3547192898050773,2053.235193155936,5774.498866781836
2.521526315789474,881.3558123426385,880.8577181880804,0.23683348204770627,0.3121659583370979,0.18183404166290207,0.35471928980511813,2049.7190056343566,5824.12348989692
2.576342105263158,885.0167997641433,884.4992713549753,0.2429466481639433,0.3143777106945561,0.17962228930544388,0.35471928980516476,2045.839939740771,5873.169315997735
2.6311578947368424,888.8988283232662,888.3601276061527,0.24968816964005117,0.3168168029315592,0.1771831970684408,0.3547192898052181,2041.5621554418317,5921.670602592417
2.6585657894736845,890.9296266707013,890.3796406835343,0.2533136911262348,0.3181285218578242,0.17587147814217577,0.3547192898052477,2039.2616066793557,5945.727781107949
2.6859736842105266,893.0242561122992,892.4624925041234,0.25711996779312085,0.3195056382703401,0.17449436172965985,0.35471928980527945,2036.8463610080737,5969.661743022337
2.7133815789473688,895.1858975344647,894.6118436991663,0.2611156519204221,0.3209512825764422,0.17304871742355782,0.3547192898053136,2034.3109281856955,5993.4768397320995
2.740789473684211,897.4179005888482,896.8310233938331,0.2653097813891611,0.32246872469457816,0.17153127530542192,0.35471928980535034,2031.6495732893748,6017.177455109361
2.7681973684210526,899.7323306199717,899.1271151030526,0.26974061638200714,0.3240613727582075,0.16993862724179246,0.3547297242614503,2028.838018593486,6040.768109736486
2.7956052631578947,902.1599801069613,901.5266731532379,0.274487342886953,0.32573283039713946,0.1682671696028605,0.3547756391489837,2025.8260171949617,6064.25419923322
2.8138771929824564,903.8498913409335,903.1953110179854,0.2778417984156665,0.32689285116418615,0.16710714883581385,0.3548292652521032,2023.6974713996133,6079.856584216052
2.8321491228070172,905.6014774686315,904.924031702743,0.2813578401943647,0.3280908774840904,0.16590912251590967,0.3549033479417131,2021.4663922035245,6095.41725036076
2.850421052631579,907.4186008196575,906.7167391365604,0.2850443341581457,0.32932818498781125,0.16467181501218875,0.3549998192950173,2019.127153790907,6110.938241216778
2.8686929824561402,909.3053149014861,908.5774425152164,0.2889107239693568,0.3306060866776579,0.16339391332234213,0.35512078304042605,2016.6737637532729,6126.421675850266
2.886964912280702,911.2659125009474,910.5103823405565,0.2929670488554955,0.3319259261049183,0.16207407389508174,0.35526852783370455,2014.0998517705227,6141.86975343683
2.9052368421052632,913.3049079712002,912.5200823389632,0.2972239372888751,0.33328906030244787,0.16071093969755218,0.3554455420386787,2011.3986736214679,6157.284758186143
2.923508771929825,915.426911401713,914.6113697871867,0.30169252050830647,0.33469681269249124,0.1593031873075088,0.3556545295314323,2008.5631660580289,6172.669062456445
2.9417807017543858,917.6362152206477,916.7893696291521,0.3063841032335145,0.3361503373981718,0.1578496626018282,0.35589842625281654,2005.5861557510534,6188.02512328987
2.9600526315789475,919.9355315659989,919.0594498763289,0.31130909163761467,0.33765021430399633,0.1563497856960037,0.3561804172868341,2002.4610395377204,6203.355458799588
2.9783245614035088,922.322175864376,921.4269765962446,0.31647363658840155,0.3391952172630009,0.1548047827369991,0.35650395417332836,1999.1839144288056,6218.662563868105
2.9965964912280705,924.7769900720398,923.8956516460468,0.32186965008802726,0.34077868857100874,0.1532213114289913,0.35687276836713694,1995.7599126055716,6233.948646237885
3.0057324561403513,926.0132701269217,925.166273842894,0.32464236917368566,0.34157923990847217,0.1524207600915278,0.35707539081193246,1994.0005035149034,6241.584248811594
3.0148684210526318,927.2378862921864,926.4552365837304,0.32745050497327166,0.34237979051180595,0.15162020948819405,0.3572908278092679,1992.2186210013888,6249.214884482631
3.028572368421053,929.0097235861066,928.3919954076428,0.33169248812389407,0.3435663688790991,0.1504336311209009,0.3576390050915824,1989.5269008930409,6260.650860863511
3.042276315789474,930.6454214548044,930.2542275756593,0.33592167561376013,0.34471738734710855,0.1492826126528915,0.3580181127845808,1986.8433001798285,6272.072964127625
3.055980263157895,932.1186467716278,931.9509520748074,0.3401203146890406,0.3458262732191171,0.14817372678088295,0.358428300612925,1984.1790837448884,6283.478225422575
3.0628322368421053,932.8019357905245,932.7267029779938,0.342216636794716,0.3463681414623557,0.1476318585376443,0.35864488474463513,1982.8488775264614,6289.173607077587
3.069684210526316,933.4584343653522,933.4589223781628,0.34431894457204215,0.3469046277432351,0.14709537225676492,0.3588690164633798,1981.5148731428433,6294.863755992369
3.083388157894737,934.7193752046636,934.8235922755732,0.34856491568117803,0.3479701209663895,0.14602987903361048,0.35933972173900086,1978.8206225039062,6306.227575647493
3.097092105263158,935.9506354011615,936.1087740585721,0.35289616803545726,0.3490365209364623,0.14496347906353765,0.35984037514575035,1976.0722572600152,6317.56876554319
3.110796052631579,937.1862645993592,937.3662567087175,0.35733653007121624,0.35011193272979396,0.143888067270206,0.3603714927700767,1973.254657247096,6328.8872242262
3.1245000000000003,938.4472619820392,938.6302022546726,0.36190014281691957,0.35120052235339627,0.14279947764660372,0.36093402484955367,1970.3588493765435,6340.183374526153
3.1519078947368424,941.0906252599591,941.2516393216423,0.3714307996490726,0.3534242415523324,0.14057575844766768,0.3621585111003427,1964.3112391598215,6362.711862774287
3.1793157894736845,943.9359405173219,944.0584399390267,0.3815394088585648,0.3557142631526607,0.1382857368473393,0.36352579895718823,1957.8968933902895,6385.161865308515
3.2067236842105267,947.01369220391,947.0886939442271,0.3922689329912718,0.3580724360883557,0.13592756391164423,0.365049583397457,1951.0885504913385,6407.5423599983405
3.234131578947369,950.349855235005,950.369728994711,0.40366268272851813,0.36049955748173684,0.13350044251826315,0.36674473716608086,1943.8587279794951,6429.86315674552
3.261539473684211,953.9709708908558,953.9279364943955,0.4157656178584741,0.3629960236040257,0.13100397639597428,0.3686271305083349,1936.1788969423185,6452.134826006727
3.2889473684210526,957.9052644544801,957.7910921233852,0.428624173182329,0.36556188827822633,0.12843811172177366,0.3707135097795593,1928.0195925083901,6474.368728852457
3.3163552631578948,962.1827863509919,961.9887858556209,0.4422856880362699,0.3681968139265294,0.12580318607347057,0.3730213399979803,1919.3507758400708,6496.577066342749
3.343763157894737,966.8352633314944,966.552360531365,0.4567975655138601,0.37089999710985083,0.12310000289014918,0.3755685751106102,1910.1423676429338,6518.772927755142
3.371171052631579,971.8957802518987,971.5146461230719,0.4722061281104156,0.37367007962579113,0.12032992037420884,0.37837333286576486,1900.3649743084509,6540.970330317757
3.398578947368421,977.3982859757479,976.9095184248389,0.488555113069088,0.37650504547853864,0.11749495452146143,0.38145345345719395,1889.9908426813893,6563.184244875977
3.4259868421052633,983.3768890205345,982.771254068576,0.5058837512554603,0.37940210288631954,0.11459789711368047,0.3848259224506762,1878.9950790962139,6585.4306012279785
3.4533947368421054,989.8649033399474,989.1336416844794,0.5242243843869134,0.38235755090520573,0.11164244909479427,0.38850614207034445,1867.3571613471727,6607.72626564641
3.4808026315789475,996.8936078870416,996.0288094249831,0.5435995984568811,0.385366631180354,0.10863336881964598,0.39250704231618827,1855.0627576534607,6630.088981848288
3.5082105263157897,1004.4906944257689,1003.4857374524486,0.5640188893422186,0.3884233667432206,0.1055766332567794,0.39683803577875504,1842.1058424742475,6652.537265638526
3.535618421052632,1012.6783979922257,1011.5284414461247,0.5854749318465989,0.3915203917142422,0.10247960828575782,0.40150383807096457,1828.4910639605393,6675.090242907874
3.563026315789474,1021.4713347394812,1020.1738413650601,0.6079395950146216,0.39464877826522415,0.09935122173477587,0.4065031992005918,1814.2362724091504,6697.767420941308
3.590434210526316,1030.8741123973475,1029.4293690917266,0.6313599292139518,0.39779787017635004,0.09620212982364997,0.41182761813376195,1799.375066631067,6720.588384442542
3.617842105263158,1040.87882648512,1039.2904172937351,0.6556544333658789,0.4009551355924322,0.09304486440756786,0.41746013951730787,1783.9591625536343,6743.572410622157
3.6452500000000003,1051.4626048381183,1049.7377847472158,0.6807099774878068,0.40410605478769357,0.08989394521230645,0.42337435248540245,1768.060345999237,6766.7380023168225
3.6726578947368425,1062.5854051348138,1060.7353219208687,0.7063797869740125,0.4072340613776893,0.0867659386223107,0.42953372015749547,1751.7717517455474,6790.102344354298
3.7000657894736846,1074.1882946302485,1072.2280139124205,0.7324828730355424,0.41032055685069047,0.08367944314930953,0.4358913590392592,1735.2082249358182,6813.680695880412
3.7274736842105267,1086.192438980328,1084.1407449976482,0.7588052085674188,0.41334501789747274,0.08065498210252722,0.44239035712325797,1718.5055749407484,6837.485739401679
3.7548815789473684,1098.4957993656685,1096.3750541057525,0.7850952445818588,0.41628437605792734,0.07771562394207267,0.4489627720813809,1701.8234203737572,6861.5339418046005
3.7822894736842105,1110.9420861227,1108.778796922951,0.8109990321744304,0.4191059299939619,0.07489407000603808,0.4555132460253018,1685.3863569839448,6885.911771758527
3.8096973684210527,1123.3877546689275,1121.2087463515768,0.8362202993261987,0.4217849910007439,0.07221500899925613,0.46195927601416875,1669.3823820646987,6910.638395658173
3.837105263157895,1135.688150531489,1133.520544030232,0.8604789251448586,0.42429934536331376,0.0697006546366863,0.46822172761827097,1653.9892443273668,6935.710139518686
3.864513157894737,1147.6926293891947,1145.563276534799,0.8834996924549509,0.42662767095547843,0.06737232904452153,0.47422234899099036,1639.3815808647998,6961.118068125141
3.891921052631579,1159.2488025283992,1157.1836329150601,0.9050200901829242,0.4287502074826982,0.06524979251730177,0.4798859235401343,1625.7259662036408,6986.847830983204
3.919328947368421,1170.2069066593374,1168.2304309418864,0.9247971572255885,0.4306494289437889,0.06335057105621109,0.4851420735877551,1613.1765695764827,7012.879674001721
3.9467368421052633,1180.423852444799,1178.5588942119093,0.9426129229944047,0.43231069073885453,0.06168930926114543,0.4899265816590229,1601.8717026633503,7039.1886165703
3.9741447368421055,1189.766582546392,1188.0342881093377,0.9582780549789736,0.4337228336595689,0.06027716634043109,0.4941821061857,1591.9315050563423,7065.744778422324
4.001552631578948,1198.1143313150426,1196.53452784801,0.9716333164891127,0.43487874903302226,0.05912125096697774,0.49785814377548876,1583.4570192598085,7092.513825384225
4.019824561403509,1203.07296316268,1201.605549395092,0.9791880763475563,0.4355055745249227,0.058494425475077286,0.4999646413455798,1578.6632003542034,7110.459372555637
4.02896052631579,1205.3592213172349,1203.951274339723,0.9825482458050235,0.4357759555905136,0.05822404440948644,0.5009099744578565,1576.5310288261778,7119.457485075859
4.03809649122807,1207.5121142398434,1206.1659027020996,0.9856252721758497,0.43601786002306503,0.057982139976934945,0.5017813426242127,1574.5785237213302,7128.470390052281
4.04266447368421,1208.537482412531,1207.2230234099836,0.9870564964568013,0.4361282107481837,0.05787178925181629,0.5021888109174756,1573.6703505768828,7132.981884292705
4.047232456140351,1209.528233544882,1208.2461415314576,0.9884156158521402,0.4362315458792891,0.0577684541207109,0.5025772071526727,1572.8079310725661,7137.496465587651
4.051800438596492,1210.4839432370445,1209.2348559423403,0.9897021993408164,0.4363279118405248,0.0576720881594752,0.5029463289616202,1571.9915387097087,7142.013925535888
4.056368421052632,1211.4041838023595,1210.1887669041355,0.9909158142361179,0.43641736146592175,0.05758263853407828,0.5032959669636077,1571.2214480465732,7146.534053486717
4.063220394736843,1212.7170889064162,1211.553500684328,0.9925984582919681,0.43653870059637884,0.05746129940362115,0.5037834108903432,1570.1537382798194,7153.318781543741
4.070072368421053,1213.9477036916423,1212.8376604206426,0.9941144017886061,0.436644848942726,0.05735515105727403,0.5042257330973525,1569.1918071621958,7160.108304699276
4.076924342105263,1215.0944427911313,1214.0398462250735,0.995462010342246,0.43673608661643587,0.05726391338356413,0.5046220621507418,1568.336691780259,7166.901882564376
4.083776315789474,1216.1556011063424,1215.1585973001343,0.9966394864163808,0.436812748960846,0.057187251039154056,0.5049714123558607,1567.58953274796,7173.698761923546
4.090628289473685,1217.1292987989575,1216.192359173046,0.9976447903285977,0.4368752414170035,0.05712475858299655,0.5052726403116103,1566.9516243312048,7180.498175568398
4.097480263157895,1218.0134080226048,1217.1394439426772,0.9984755399979465,0.43692406330104916,0.05707593669895085,0.505524384861511,1566.424478062446,7187.299340577814
4.104332236842105,1218.8054599765985,1217.9979878766394,0.9991288988253085,0.4369598487100735,0.05704015128992651,0.5057249856228013,1566.0098938853919,7194.101455874919
4.111184210526316,1219.502556128372,1218.7659317063178,0.9996015307354026,0.43698344459603794,0.05701655540396211,0.5058723886466499,1565.7099886827841,7200.903698956219
4.113468201754387,1219.713260387176,1219.0014054497951,0.9997183026620747,0.4369887970047066,0.05701120299529339,0.5059092844902283,1565.6358918907993,7203.170996005561
4.115752192982456,1219.9129333089932,1219.2264989539524,0.9998145094126841,0.43699298621853233,0.057007013781467705,0.5059399030181557,1565.5748445843915,7205.438181272119
4.118036184210526,1220.1014777991084,1219.4411535968366,0.9998901228587845,0.4369960853263223,0.05700391467367767,0.5059641609647123,1565.5268646122645,7207.705222425848
4.1203201754385965,1220.278853098779,1219.6453427562449,0.9999452683560659,0.43699818590308154,0.05700181409691851,0.5059820121087634,1565.491872430861,7209.972086954256
4.12184283625731,1220.3909375650917,1219.7756709883224,0.9999708746788946,0.4369990892607925,0.057000910739207496,0.5059903731557499,1565.4756241216123,7211.483215818079
4.123365497076024,1220.4982034534066,1219.901409753401,0.9999879187420407,0.43699964778973804,0.05700035221026198,0.5059959811935437,1565.464808933086,7212.994242295639
4.1243806042885,1220.5671511334313,1219.9827319376816,0.9999948392568647,0.43699985776813355,0.05700014223186645,0.5059982750674379,1565.4604175698369,7214.001531869739
4.125395711500975,1220.6342070562218,1220.062110152717,0.9999986179004892,0.4369999644354254,0.05700003556457466,0.5059995355188839,1565.4580198585152,7215.008769326926
4.125903265107213,1220.6671002732537,1220.101095920445,0.9999995177134738,0.436999988135966,0.05700001186403403,0.5059998373719846,1565.457448888613,7215.512367782761
4.126410818713451,1220.6996342065415,1220.1396330461107,0.9999999173133265,0.43699999815179674,0.05700000184820324,0.5059999719319594,1565.4571953253808,7216.015952382559
4.126664595516569,1220.7157882973086,1220.1587398515933,0.9999999837698507,0.436999999742393,0.05700000025760701,0.50599999438543,1565.4571531558681,7216.267739419399
4.126918372319689,1220.7318826473054,1220.1777431678108,0.9999999997413258,0.43700000011324963,0.05699999988675038,0.5059999997930762,1565.4571430212827,7216.519522918214
4.127045260721248,1220.739911963225,1220.1872072369372,1.0000000000362612,0.4370000001195807,0.05699999988041937,0.5059999998934533,1565.4571428341337,7216.645413335448
4.127172149122808,1220.747931351582,1220.1966468519372,1.0000000000002363,0.4370000001183834,0.056999999881616616,0.5059999998816166,1565.4571428569927,7216.771302862275
4.127425925925927,1220.7639411559344,1220.2154537753934,1.0000000000002363,0.4370000001176284,0.0569999998823716,0.5059999998823717,1565.4571428569927,7217.023079238547
4.127679702729045,1220.7799129496552,1220.2341659165206,1.0000000000002363,0.4370000001168732,0.05699999988312685,0.5059999998831268,1565.4571428569927,7217.274852034947
4.127933479532164,1220.7958475061098,1220.2527851986035,1.0000000000002363,0.43700000011611767,0.05699999988388235,0.5059999998838823,1565.4571428569927,7217.526621239642
4.128187256335282,1220.811745582996,1220.2713135059553,1.0000000000002363,0.4370000001153619,0.056999999884638115,0.5059999998846381,1565.4571428569927,7217.778386841051
4.128441033138402,1220.8276079226591,1220.2897526847082,1.0000000000002363,0.4370000001146059,0.05699999988539413,0.5059999998853941,1565.4571428569927,7218.030148827839
4.128694809941521,1220.8434352524057,1220.3081045435865,1.0000000000002363,0.4370000001138496,0.056999999886150406,0.5059999998861504,1565.4571428569927,7218.2819071889135
4.12894858674464,1220.859228284807,1220.326370854666,1.0000000000002363,0.4370000001130931,0.05699999988690693,0.5059999998869069,1565.4571428569927,7218.5336619134105
4.129202363547758,1220.8749877179985,1220.3445533541176,1.0000000000002363,0.4370000001123363,0.05699999988766371,0.5059999998876638,1565.4571428569927,7218.785412990703
4.129456140350878,1220.8907142359712,1220.3626537429334,1.0000000000002363,0.43700000011157925,0.05699999988842075,0.5059999998884207,1565.4571428569927,7219.037160410389
4.129709917153997,1220.9064085088603,1220.3806736876422,1.0000000000002363,0.43700000011082196,0.05699999988917803,0.505999999889178,1565.4571428569927,7219.288904162289
4.129963693957116,1220.9220711932235,1220.3986148210063,1.0000000000002363,0.4370000001100644,0.05699999988993558,0.5059999998899356,1565.4571428569927,7219.540644236436
4.130217470760234,1220.9377029323193,1220.416478742707,1.0000000000002363,0.4370000001093066,0.056999999890693376,0.5059999998906933,1565.4571428569927,7219.792380623078
4.130471247563354,1220.953304356374,1220.4342670200158,1.0000000000002363,0.43700000010854856,0.05699999989145142,0.5059999998914514,1565.4571428569927,7220.044113312675
4.130725024366473,1220.9688760828462,1220.4519811884497,1.0000000000002363,0.4370000001077903,0.056999999892209725,0.5059999998922098,1565.4571428569927,7220.295842295886
4.130978801169592,1220.9844187166875,1220.4696227524162,1.0000000000002363,0.4370000001070317,0.05699999989296828,0.5059999998929683,1565.4571428569927,7220.547567563572
4.13123257797271,1220.9999328505933,1220.4871931858445,1.0000000000002363,0.43700000010627293,0.05699999989372709,0.5059999998937271,1565.4571428569927,7220.799289106788
4.13148635477583,1221.0154190652534,1220.5046939328024,1.0000000000002363,0.4370000001055139,0.05699999989448614,0.5059999998944862,1565.4571428569927,7221.051006916784
4.131740131578949,1221.0308779295945,1220.5221264081006,1.0000000000002363,0.43700000010475454,0.05699999989524545,0.5059999998952455,1565.4571428569927,7221.302720984997
4.131993908382068,1221.0463100010172,1220.5394919978885,1.0000000000002363,0.437000000103995,0.05699999989600501,0.505999999896005,1565.4571428569927,7221.554431303045
4.132247685185186,1221.0617158256325,1220.5567920602334,1.0000000000002363,0.4370000001032352,0.05699999989676482,0.5059999998967648,1565.4571428569927,7221.806137862731
4.132501461988305,1221.0770959384881,1220.5740279256888,1.0000000000002363,0.43700000010247514,0.05699999989752488,0.5059999998975249,1565.4571428569927,7222.0578406560335
4.1327552387914235,1221.092450863794,1220.5912008978546,1.0000000000002363,0.4370000001017148,0.05699999989828519,0.5059999998982851,1565.4571428569927,7222.3095396751005
4.133009015594542,1221.1077811151415,1220.6083122539217,1.0000000000002363,0.43700000010095424,0.05699999989904575,0.5059999998990458,1565.4571428569927,7222.561234912255
4.133262792397661,1221.1230871957182,1220.6253632452074,1.0000000000002363,0.43700000010019346,0.056999999899806565,0.5059999998998066,1565.4571428569927,7222.812926359982
4.13351656920078,1221.1383695985198,1220.6423550976801,1.0000000000002363,0.4370000000994324,0.05699999990056762,0.5059999999005677,1565.4571428569927,7223.064614010935
4.1337703460038995,1221.1536288065556,1220.6592890124737,1.0000000000002363,0.43700000009867107,0.05699999990132893,0.5059999999013289,1565.4571428569927,7223.316297857919
4.134024122807018,1221.1688652930513,1220.6761661663895,1.0000000000002363,0.4370000000979095,0.05699999990209049,0.5059999999020904,1565.4571428569927,7223.567977893901
4.134277899610137,1221.1840795216474,1220.6929877123907,1.0000000000002363,0.43700000009714773,0.056999999902852296,0.5059999999028523,1565.4571428569927,7223.819654112
4.134531676413256,1221.199271946593,1220.7097547800845,1.0000000000002363,0.4370000000963857,0.056999999903614346,0.5059999999036143,1565.4571428569927,7224.071326505485
4.1347854532163755,1221.2144430129367,1220.7264684761967,1.0000000000002363,0.43700000009562334,0.05699999990437665,0.5059999999043766,1565.4571428569927,7224.3229950677705
4.135039230019494,1221.2295931567126,1220.743129885034,1.0000000000002363,0.4370000000948608,0.0569999999051392,0.5059999999051392,1565.4571428569927,7224.574659792417
4.135293006822613,1221.2447228051228,1220.759740068939,1.0000000000002363,0.437000000094098,0.056999999905902,0.505999999905902,1565.4571428569927,7224.826320673124
4.135546783625731,1221.2598323767168,1220.776300068736,1.0000000000002363,0.43700000009333495,0.056999999906665044,0.505999999906665,1565.4571428569927,7225.077977703732
4.13580056042885,1221.274922281567,1220.7928109041663,1.0000000000002363,0.43700000009257167,0.056999999907428336,0.5059999999074284,1565.4571428569927,7225.329630878217
4.136054337231968,1221.2899929214398,1220.8092735743148,1.0000000000002363,0.4370000000918081,0.05699999990819188,0.5059999999081919,1565.4571428569927,7225.58128019068
4.136308114035087,1221.305044689964,1220.8256890580299,1.0000000000002363,0.43700000009104434,0.05699999990895567,0.5059999999089557,1565.4571428569927,7225.832925635365
4.136561890838206,1221.320077972796,1220.8420583143336,1.0000000000002363,0.4370000000902803,0.0569999999097197,0.5059999999097197,1565.4571428569927,7226.084567206634
4.136815667641326,1221.3350931477814,1220.8583822828214,1.0000000000002363,0.437000000089516,0.05699999991048398,0.5059999999104839,1565.4571428569927,7226.336204898977
4.137069444444444,1221.3500905851133,1220.8746618840585,1.0000000000002363,0.4370000000887515,0.05699999991124851,0.5059999999112486,1565.4571428569927,7226.5878387070015
4.137323221247563,1221.3650706474866,1220.8908980199635,1.0000000000002363,0.43700000008798673,0.05699999991201328,0.5059999999120133,1565.4571428569927,7226.8394686254405
4.137576998050682,1221.3800336902507,1220.9070915741875,1.0000000000002363,0.4370000000872217,0.0569999999127783,0.5059999999127783,1565.4571428569927,7227.091094649145
4.137830774853802,1221.394980061558,1220.923243412483,1.0000000000002363,0.43700000008645645,0.05699999991354357,0.5059999999135436,1565.4571428569927,7227.342716773075
4.13808455165692,1221.40991010251,1220.9393543830681,1.0000000000002363,0.4370000000856909,0.056999999914309075,0.5059999999143091,1565.4571428569927,7227.594334992308
4.138338328460039,1221.4248241472997,1220.9554253169804,1.0000000000002363,0.4370000000849252,0.05699999991507484,0.5059999999150748,1565.4571428569927,7227.84594930203
4.138592105263158,1221.4397225233517,1220.9714570284257,1.0000000000002363,0.4370000000841592,0.056999999915840836,0.5059999999158409,1565.4571428569927,7228.097559697535
4.138845882066278,1221.4546055514602,1220.9874503151198,1.0000000000002363,0.4370000000833929,0.056999999916607084,0.505999999916607,1565.4571428569927,7228.349166174225
4.139099658869396,1221.4694735459211,1221.00340595862,1.0000000000002363,0.4370000000826264,0.056999999917373576,0.5059999999173735,1565.4571428569927,7228.6007687276
4.139353435672515,1221.4843268146667,1221.0193247246573,1.0000000000002363,0.4370000000818597,0.056999999918140316,0.5059999999181403,1565.4571428569927,7228.852367353269
4.139607212475634,1221.499165659392,1221.0352073634513,1.0000000000002363,0.4370000000810927,0.0569999999189073,0.5059999999189073,1565.4571428569927,7229.103962046936
4.139860989278754,1221.513990375683,1221.0510546100284,1.0000000000002363,0.43700000008032547,0.05699999991967453,0.5059999999196745,1565.4571428569927,7229.355552804405
4.140114766081872,1221.528801253138,1221.0668671845292,1.0000000000002363,0.437000000079558,0.056999999920441996,0.505999999920442,1565.4571428569927,7229.607139621571
4.140368542884991,1221.543598575492,1221.0826457925086,1.0000000000002363,0.4370000000787903,0.056999999921209715,0.5059999999212097,1565.4571428569927,7229.858722494429
4.140622319688109,1221.5583826207333,1221.0983911252322,1.0000000000002363,0.4370000000780223,0.05699999992197768,0.5059999999219776,1565.4571428569927,7230.11030141906
4.140876096491228,1221.5731536612207,1221.1141038599656,1.0000000000002363,0.43700000007725415,0.05699999992274588,0.5059999999227459,1565.4571428569927,7230.361876391639
4.1411298732943465,1221.5879119637968,1221.129784660259,1.0000000000002363,0.43700000007648565,0.05699999992351433,0.5059999999235143,1565.4571428569927,7230.613447408428
4.141383650097465,1221.6026577899015,1221.145434176223,1.0000000000002363,0.437000000075717,0.05699999992428303,0.505999999924283,1565.4571428569927,7230.865014465773
4.1416374269005845,1221.6173913956793,1221.161053044803,1.0000000000002363,0.43700000007494805,0.05699999992505196,0.505999999925052,1565.4571428569927,7231.116577560108
4.1421449805068224,1221.6468229449988,1221.1922013233468,1.0000000000002363,0.43700000007340944,0.05699999992659057,0.5059999999265906,1565.4571428569927,7231.619691845887
4.1426525341130604,1221.6762085590522,1221.223234338142,1.0000000000002363,0.43700000007186984,0.05699999992813015,0.5059999999281302,1565.4571428569927,7232.122790238848
4.1431600877192984,1221.7055501070624,1221.254156737291,1.0000000000002363,0.4370000000703293,0.05699999992967071,0.5059999999296707,1565.4571428569927,7232.625872713319
4.143667641325536,1221.7348493833156,1221.2849729825416,1.0000000000002363,0.43700000006878775,0.05699999993121224,0.5059999999312123,1565.4571428569927,7233.128939244825
4.144175194931774,1221.7641081101647,1221.3156873567643,1.0000000000002363,0.43700000006724526,0.056999999932754744,0.5059999999327548,1565.4571428569927,7233.631989810039
4.144682748538012,1221.7933279409142,1221.3463039711232,1.0000000000002363,0.4370000000657018,0.05699999993429822,0.5059999999342982,1565.4571428569927,7234.135024386736
4.145444078947369,1221.8370882109837,1221.3920541820582,1.0000000000002363,0.43700000006338474,0.05699999993661526,0.5059999999366153,1565.4571428569927,7234.889546227284
4.1462054093567255,1221.8807696112297,1221.4376059336635,1.0000000000002363,0.43700000006106554,0.05699999993893448,0.5059999999389345,1565.4571428569927,7235.644031979072
4.146712962962963,1221.9098491042805,1221.467869421391,1.0000000000002363,0.43700000005951817,0.05699999994048184,0.5059999999404818,1565.4571428569927,7236.147002399958
4.1472205165692015,1221.9388970251507,1221.4980533610658,1.0000000000002363,0.43700000005796985,0.05699999994203017,0.5059999999420302,1565.4571428569927,7236.649956736235
4.147728070175439,1221.9679146672677,1221.528160968936,1.0000000000002363,0.43700000005642053,0.056999999943579474,0.5059999999435795,1565.4571428569927,7237.152894971414
4.148489400584795,1222.0113870600562,1221.5731859780929,1.0000000000002363,0.43700000005409473,0.056999999945905246,0.5059999999459053,1565.4571428569927,7237.907272100587
4.149250730994153,1222.05479809001,1221.6180560609555,1.0000000000002363,0.4370000000517668,0.056999999948233196,0.5059999999482332,1565.4571428569927,7238.661612917704
4.150012061403509,1222.0981515025567,1221.6627805308829,1.0000000000002363,0.4370000000494367,0.05699999995056333,0.5059999999505633,1565.4571428569927,7239.415917377004
4.150773391812866,1222.1414508201954,1221.7073681468826,1.0000000000002363,0.4370000000471044,0.05699999995289565,0.5059999999528957,1565.4571428569927,7240.170185436282
4.153818713450292,1222.314170497202,1221.8845076102148,1.0000000000002363,0.4370000000377533,0.056999999962246695,0.5059999999622466,1565.4571428569927,7243.18689294203
4.156864035087719,1222.4862568742146,1222.0600348391922,1.0000000000002363,0.43700000002836736,0.056999999971632624,0.5059999999716326,1565.4571428569927,7246.203015460553
4.159909356725146,1222.6578532440537,1222.2343061391666,1.0000000000002363,0.43700000001894657,0.05699999998105345,0.5059999999810535,1565.4571428569927,7249.218551598557
4.162954678362573,1222.829071715292,1222.4076002721972,1.0000000000002363,0.4370000000094908,0.056999999990509226,0.5059999999905093,1565.4571428569927,7252.233500458628
4.166,1222.9999999999998,1222.5801353360205,1.0000000000002363,0.437,0.057,0.5060000000000001,1565.4571428569927,7255.247861530837
