z,T,t,fs,x,y,w,rhob,p
0.0,556.2445917293904,298.0,0.0,0.2264790718657571,0.26752092813424283,0.35471947934545267,2200.0,2040.0
0.0017712585034013607,572.6670404901738,335.84128276390703,3.3167956459806754e-07,0.2264791918679041,0.26752080813209583,0.35471947934545267,2199.9997895351016,2043.655999648458
0.0035425170068027214,587.6610171233741,370.16151220192063,1.2201708594174543e-06,0.2264795133253418,0.26752048667465816,0.35471947934545267,2199.999225749297,2047.4729048419092
0.007085034013605443,613.9421152118772,429.8132437715795,6.327824535178551e-06,0.2264813612818416,0.26751863871815845,0.35471947934545267,2199.99598472414,2055.5374532773285
0.010627551020408164,636.066254786736,479.555000257899,1.8726879025261078e-05,0.22648584727771964,0.26751415272228035,0.35471947934545267,2199.988116992678,2064.099091456534
0.014170068027210886,654.785693373815,521.3172073911342,4.1162020312395344e-05,0.22649396434434096,0.26750603565565906,0.35471947934545267,2199.973880934025,2073.0769777385253
0.021255102040816327,684.248807919192,586.4630098154823,0.00012181824670071452,0.2265231458839016,0.2674768541160984,0.35471947934545267,2199.9227011016865,2092.015553660514
0.02834013605442177,705.777843130916,633.6143710614293,0.0002515562399191459,0.22657008527781022,0.26742991472218974,0.35471947934545267,2199.8403767847894,2111.913497186903
0.035425170068027215,721.6541185493999,668.1280667207518,0.00042608903209101495,0.22663323149487813,0.2673667685051219,0.35471947934545267,2199.72962824818,2132.4507214119817
0.042510204081632655,733.442591294738,693.5945604378427,0.0006387809849345352,0.22671018375156138,0.26728981624843867,0.35471947934545267,2199.594666088731,2153.39411882009
0.049595238095238095,742.2438344275803,712.4971850568996,0.000883004264598196,0.22679854408797015,0.2672014559120299,0.35471947934545267,2199.4396959510723,2174.574048097199
0.05668027210884354,748.8457671369754,726.5923678558037,0.001152973352976714,0.2268962192952721,0.2671037807047279,0.35471947934545267,2199.2683889943924,2195.8672804604676
0.06376530612244898,753.8198087297161,737.1426129347261,0.0014439278600229053,0.2270014870574513,0.2669985129425487,0.3547194793454527,2199.0837658901933,2217.1845946109884
0.07085034013605442,757.5842868392186,745.066113933552,0.0017520672359037817,0.22711297233007202,0.26688702766992795,0.3547194793454527,2198.888238250223,2238.461722363048
0.07793537414965987,760.447567721247,751.0364111191234,0.002074407934849695,0.22722959566195233,0.2667704043380477,0.3547194793454527,2198.6836992621406,2259.652719761719
0.08502040816326531,762.6381075529099,755.5506956999126,0.0024086311803953285,0.22735051811640763,0.2666494818835924,0.3547194793454527,2198.4716202889886,2280.725101898916
0.09210544217687075,764.3257831458124,758.977675332369,0.002752946127919113,0.2274750917632593,0.2665249082367407,0.3547194793454527,2198.25313769843,2301.6562653364917
0.0991904761904762,765.6372498445804,761.59169644773,0.0031059752874047944,0.2276028182246238,0.2663971817753762,0.3547194793454527,2198.0291255669144,2322.4308536728818
0.10627551020408164,766.6671197389652,763.5973912563087,0.0034666619735677804,0.22773331519023424,0.2662666848097658,0.3547194793454528,2197.800254406544,2343.0388157699285
0.11336054421768708,767.4861648629874,765.1476598547534,0.003834197053221284,0.2278662899145314,0.26613371008546866,0.3547194793454528,2197.5670376470002,2363.4739737321506
0.12044557823129254,768.1473745141816,766.3568895755212,0.004207961679490904,0.2280015184978195,0.2659984815021805,0.3547194793454528,2197.3298679731483,2383.7329666228284
0.12753061224489798,768.6904487524616,767.3107285882935,0.004587482879334983,0.2281388298177669,0.2658611701822331,0.35471947934545284,2197.089045506653,2403.8144714596483
0.13815816326530614,769.346543639876,768.3984524998509,0.005166791852028753,0.22834842464338037,0.26565157535661965,0.35471947934545284,2196.7214491359514,2433.6045419569955
0.1487857142857143,769.8730248649898,769.205175062841,0.005757378803752433,0.22856209985814618,0.2654379001418538,0.35471947934545284,2196.346696404213,2463.0003607705057
0.15941326530612246,770.3159615461653,769.8301744636955,0.006358655062718453,0.22877964247975882,0.2652203575202412,0.3547194793454529,2195.965160848917,2492.0096143817545
0.17004081632653062,770.7052595543928,770.3378851269836,0.006970226720256248,0.2290009099914905,0.2649990900085095,0.3547194793454529,2195.577092421995,2520.6417295484694
0.18066836734693878,771.0603268840084,770.770118217814,0.007591829659155633,0.22922580683535193,0.26477419316464806,0.35471947934545295,2195.182658717137,2548.906996096728
0.19129591836734694,771.3937537342504,771.1539950904801,0.008223286359929619,0.22945426878453556,0.26454573121546443,0.35471947934545295,2194.7819723780663,2576.81602554255
0.21255102040816326,772.0254455278546,771.8407818628714,0.009515321936120986,0.2299217291278805,0.2640782708721195,0.354719479345453,2193.96212043202,2631.607592471822
0.2338061224489796,772.6369217305861,772.4770440254374,0.010845771707175027,0.23040308778258062,0.2635969122174194,0.3547194793454531,2193.1178930330098,2685.098232370658
0.25506122448979596,773.2434863675005,773.095726530849,0.012214385677337163,0.23089825429980965,0.26310174570019035,0.35471947934545317,2192.249448814058,2737.364113655065
0.2763163265306123,773.8515593246372,773.7106298860033,0.013621064252566473,0.23140719264629933,0.26259280735370066,0.3547194793454532,2191.35685097185,2788.475099302989
0.2975714285714286,774.4638400533878,774.3275343105495,0.015065787791967744,0.2319298957159453,0.26207010428405464,0.35471947934545334,2190.440111969377,2838.4949883834574
0.3188265306122449,775.08147505885,774.9488696878133,0.016548585071962732,0.23246637392009867,0.2615336260799014,0.3547194793454534,2189.499213546765,2887.4820426893393
0.34008163265306124,775.7049653184858,775.5756709653768,0.01806951874096311,0.23301664992504553,0.2609833500749545,0.3547194793454535,2188.534115950913,2935.48956427742
0.36133673469387756,776.334545130897,776.2083947312165,0.01962867822147569,0.2335807560839784,0.26041924391602156,0.35471947934545356,2187.544762439407,2982.5664402237126
0.3825918367346939,776.9703398314504,776.8472592797115,0.02122617591438998,0.23415873306370194,0.2598412669362981,0.35471947934545367,2186.531081689066,3028.757629846972
0.3967619047619048,777.3976969340127,777.2766423399049,0.02231253830229376,0.23455178054954864,0.2594482194504514,0.3547194793454537,2185.841738195553,3059.080314191863
0.41093197278911564,777.8278725098398,777.7088344144437,0.023416042855441275,0.23495103009561583,0.2590489699043842,0.3547194793454538,2185.1415172635284,3089.039348205461
0.4251020408163265,778.2608847678855,778.1438570112832,0.02453673738179603,0.23535649899889388,0.2586435010011061,0.3547194793454539,2184.430388556791,3118.6456559650974
0.4392721088435374,778.6967513423056,778.5817298001043,0.025674673152927863,0.23576820580951116,0.25823179419048886,0.35471947934545395,2183.7083195413325,3147.9096276142436
0.45344217687074834,779.1354897655232,779.0224716430067,0.026829904777842164,0.23618617028508482,0.2578138297149152,0.35471947934545406,2182.975275565397,3176.8411556116744
0.4676122448979592,779.577117726846,779.4661011617025,0.028002490088781508,0.23661041334940405,0.2573895866505959,0.3547194793454541,2182.23121993195,3205.4496678849378
0.48178231292517015,780.0216532127971,779.9126370486109,0.029192490036739866,0.23704095705462686,0.2569590429453732,0.35471947934545417,2181.4761139649727,3233.744158198876
0.495952380952381,780.4691145823899,780.3620982367178,0.030399968595162346,0.23747782454643823,0.25652217545356176,0.3547194793454543,2180.7099170705724,3261.73321401655
0.5101224489795919,780.919520606778,780.8145039917276,0.03162499267074136,0.2379210400317765,0.25607895996822355,0.3547194793454544,2179.932586793586,3289.4250420994163
0.5242925170068028,781.372890489523,781.2698739616001,0.03286763202048748,0.2383706287488291,0.25562937125117086,0.35471947934545445,2179.1440788702,3316.827492066207
0.5384625850340137,781.829243876431,781.7282282028218,0.0341279591744236,0.23882661693906346,0.25517338306093656,0.35471947934545456,2178.344347277007,3343.948078105724
0.5526326530612246,782.2886008598796,782.189587194072,0.03540604936336332,0.2392890318210969,0.2547109681789031,0.35471947934545467,2177.5333442768306,3370.7939990172804
0.5668027210884354,782.7509819803406,782.6539718431395,0.03670198045131314,0.23975790156623975,0.2542420984337602,0.3547194793454548,2176.7110204616224,3397.372156733666
0.5809727891156463,783.2164082265784,783.1214034903061,0.038015832872095714,0.24023325527556566,0.25376674472443433,0.35471947934545484,2175.8773247926747,3423.689173464929
0.5951428571428572,783.6849010353453,783.5919039099589,0.039347689569836336,0.24071512295837924,0.2532848770416207,0.35471947934545495,2175.032204638386,3449.7514075866115
0.6093129251700681,784.1564822910285,784.0654953113966,0.04069763594299063,0.2412035355119655,0.2527964644880345,0.35471947934545506,2174.1756058097744,3475.5649683832335
0.623482993197279,784.6311743255208,784.5422003393625,0.04206575979162163,0.24169852470251443,0.2523014752974856,0.3547194793454552,2173.3074725939396,3501.13572974644
0.6376530612244898,785.1089999184894,785.0220420746026,0.04345215126766048,0.24220012314712536,0.25179987685287464,0.35471947934545534,2172.427747785615,3526.469342917183
0.6518231292517007,785.5899822981949,785.505044034627,0.04485690282790714,0.24270836429680243,0.25129163570319757,0.35471947934545545,2171.536372717,3551.571248352421
0.6659931972789116,786.0741451430065,785.9912301747951,0.0462801091895479,0.2432232824203609,0.25077671757963915,0.35471947934545556,2170.6332872859807,3576.446686788944
0.6801632653061225,786.5615125838098,786.480624889829,0.04772186728798388,0.2437449125891693,0.25025508741083075,0.3547194793454557,2169.7184299828905,3601.100709569902
0.6943333333333334,787.0521092075675,786.9732530158622,0.04918227623678166,0.24427329066265963,0.2497267093373404,0.35471947934545583,2168.7917379159235,3625.5381882934175
0.7085034013605442,787.5459600624063,787.4691398331638,0.0506614372895711,0.24480845327454187,0.24919154672545815,0.354719479345456,2167.8531468353117,3649.7638238370832
0.7226734693877551,788.0430906647681,787.9683110697316,0.05215945380373019,0.2453504378196651,0.2486495621803349,0.3547194793454561,2166.90259115637,3673.7821548072066
0.7368435374149659,788.5435270094019,788.4707929060187,0.05367643120570919,0.24589928244147174,0.24810071755852825,0.3547194793454563,2165.9400039814973,3697.597565457238
0.7510136054421769,789.0472955833299,788.9766119811859,0.05521247695785964,0.2464550260199964,0.2475449739800036,0.35471947934545645,2164.9653171212253,3721.2142931158855
0.7651836734693878,789.5544233854278,789.4857954014306,0.056767700526646155,0.24701770816036442,0.2469822918396356,0.3547194793454566,2163.9784611143923,3744.636435161865
0.7793537414965986,790.0649379540229,789.9983707511933,0.058342213352133694,0.24758736918175284,0.24641263081824716,0.3547194793454568,2162.979365247499,3767.86795557915
0.7935238095238096,790.5788674060165,790.5143661083965,0.05993612881865723,0.24816405010677825,0.24583594989322177,0.35471947934545695,2161.9679575733267,3790.9126911237554
0.8076938775510204,791.0962404926788,791.0338100653835,0.06154956222659978,0.24874779265128633,0.24525220734871367,0.3547194793454571,2160.9441649288415,3813.774357130692
0.8218639455782313,791.6170866796995,791.556731757978,0.06318263076522736,0.24933863921452326,0.24466136078547673,0.3547194793454573,2159.9079129524303,3836.456552987602
0.8360340136054422,792.1414362626796,792.0831609061842,0.0648354534865589,0.24993663286968204,0.24406336713031795,0.3547194793454575,2158.859126100486,3858.9627672998367
0.850204081632653,792.6693205346493,792.6131278716601,0.066508151280291,0.25054181735483,0.24345818264517002,0.35471947934545767,2157.7977276633146,3881.2963827703425
0.8643741496598639,793.2007720302595,793.1466637394786,0.0682008468498527,0.2511542370642455,0.24284576293575452,0.3547194793454579,2156.723639780332,3903.4606808168014
0.8785442176870749,793.7358248834176,793.6838004352038,0.06991366468974904,0.2517739370402209,0.2422260629597791,0.3547194793454581,2155.636783454439,3925.4588459480415
0.8927142857142858,794.274515353389,794.2245708935445,0.07164673106446945,0.25240096296543135,0.24159903703456864,0.35471947934545833,2154.537078565406,3947.2939699221083
0.9068843537414967,794.8168826019765,794.769009302645,0.0734001739894118,0.2530353611560333,0.24096463884396668,0.3547194793454585,2153.424443881976,3968.969055709682
0.9210544217687074,795.3629698461574,795.3171514597749,0.07517412321453094,0.2536771785557484,0.2403228214442516,0.3547194793454588,2152.2987970722425,3990.4870212893097
0.9352244897959184,795.9128260739651,795.8690352918501,0.0769687102118072,0.25432646273132953,0.23967353726867044,0.354719479345459,2151.1600547115995,4011.850703305746
0.9493945578231293,796.4665086077124,796.4247016210832,0.07878406816820953,0.2549832618700152,0.23901673812998486,0.3547194793454592,2150.008132287207,4033.062860630623
0.9635646258503402,797.0240869449664,796.9841952973214,0.08062033198670865,0.2556476247798954,0.2383523752201046,0.3547194793454595,2148.842944197348,4054.126177877158
0.9777346938775511,797.5856485295006,797.5475668827766,0.08247763829923963,0.2563196008946024,0.23768039910539765,0.3547194793454597,2147.664403743205,4075.043268939978
0.991904761904762,798.1513074390613,798.1148751761824,0.08435612549758954,0.2569992402844851,0.2370007597155149,0.35471947934546,2146.4724231092578,4095.8166806607856
1.0060748299319728,798.7212174767793,798.686191026808,0.08625593379143319,0.2576865936776071,0.23631340632239287,0.3547194793454603,2145.266913326459,4116.448896765452
1.0202448979591838,799.2955918874811,799.2616031589337,0.08817720530790601,0.2583817124957719,0.23561828750422809,0.35471947934546055,2144.047784209049,4136.942342285423
1.0344149659863946,799.874732966959,799.8412271872286,0.09012008425548812,0.25908464891381655,0.23491535108618344,0.3547194793454609,2142.8149442505674,4157.299388775554
1.0485850340136056,800.4590762454172,800.4252198093064,0.09208471718893145,0.2597954559554625,0.2342045440445375,0.35471947934546116,2141.568300455743,4177.522360783581
1.0627551020408164,801.0492556404332,801.013801607225,0.09407125343580891,0.26051418764764206,0.23348581235235788,0.3547194793454615,2140.3077580698323,4197.613544224383
1.0769251700680273,801.6461975724922,801.607294501862,0.09607984578699037,0.26124089927031335,0.23275910072968664,0.35471947934546183,2139.033220140478,4217.5751975668645
1.0910952380952381,802.2512522554985,802.2061845131947,0.09811065162720403,0.261975647765499,0.232024352234501,0.35471947934546216,2137.7445868003265,4237.409567023115
1.105265306122449,802.8663662462003,802.8112279601145,0.10016383481080629,0.2627184924159425,0.2312815075840575,0.3547194793454625,2136.441754076766,4257.118907131096
1.1194353741496599,803.4942861844496,803.4236289404271,0.1022395687996163,0.2634694959803814,0.23053050401961858,0.35471947934546283,2135.1246119008383,4276.705507976749
1.1336054421768706,804.1387515276828,804.0453207782032,0.10433804187606609,0.2642287265796724,0.22977127342032763,0.3547194793454632,2133.7930407992703,4296.171729289198
1.1477755102040816,804.80458003939,804.6793611872486,0.10645946550554819,0.26499626072230076,0.22900373927769924,0.3547194793454636,2132.446906588208,4315.52003901469
1.1619455782312926,805.4974919591366,805.3303581993332,0.1086040867263556,0.26577218778707895,0.22822781221292107,0.354719479345464,2131.086052511268,4334.753049231512
1.1761156462585036,806.2235199436464,806.0046625886238,0.11077220401155659,0.26655661576199535,0.22744338423800464,0.35471947934546444,2129.7102891744953,4353.873536446603
1.1902857142857144,806.9879995934108,806.7099127589119,0.11296418288081943,0.26734967689259564,0.2266503231074044,0.3547194793454648,2128.3193846399963,4372.884430431372
1.2044557823129252,807.7944241463317,807.453694356505,0.11518046404756171,0.26815153062963265,0.22584846937036734,0.35471947934546527,2126.9130592562196,4391.788761574887
1.2186258503401362,808.6436629231868,808.2416937105863,0.11742155684504207,0.2689623612506174,0.22503763874938262,0.3547194793454657,2125.4909898293845,4410.589572582907
1.232795918367347,809.5339219029044,809.0762719974962,0.11968801648679905,0.26978236963261243,0.22421763036738757,0.3547194793454662,2124.052824052705,4429.289817564964
1.2469659863945577,810.4614120728219,809.9561947381112,0.12198041182414328,0.2706117615868461,0.2233882384131539,0.3547194793454667,2122.598200965646,4447.892277169614
1.2611360544217687,811.4213460857577,810.8774732262708,0.12429929393830925,0.27145073649530743,0.22254926350469253,0.35471947934546727,2121.1267708835453,4466.399508684495
1.2753061224489797,812.4088501571307,811.8346978492539,0.1266451729004934,0.27229947890249434,0.22170052109750565,0.35471947934546777,2119.63821014437,4484.813833706349
1.2894761904761907,813.4195682785054,812.8222440262479,0.12901850397517078,0.2731581535237534,0.22084184647624663,0.3547194793454684,2118.1322298632977,4503.137354010427
1.3036462585034014,814.4499391310998,813.8350538230815,0.13141967966052712,0.2740269023654968,0.21997309763450315,0.354719479345469,2116.6085809834103,4521.371982537009
1.3178163265306122,815.4972331008696,814.8689876198976,0.13384902147241992,0.2749058417526278,0.21909415824737224,0.3547194793454696,2115.067059489115,4539.5194785654285
1.3319863945578232,816.5594545118728,815.9208725221106,0.13630676410794573,0.2757950565988957,0.21820494340110427,0.35471947934547027,2113.507516455047,4557.581480282159
1.346156462585034,817.6351885066889,816.9883855163906,0.13879302275306096,0.27669458857874657,0.2173054114212534,0.35471947934547093,2111.929878790779,4575.5595315934315
1.360326530612245,818.7234377357194,818.0698702479717,0.14130773010455133,0.27760441334177993,0.21639558665822003,0.35471947934547166,2110.334189203086,4593.455102361045
1.374496598639456,819.823465979376,819.1641411085245,0.14385052131251586,0.27852439888477304,0.21547560111522698,0.35471947934547243,2108.720679204867,4611.26960233871
1.3886666666666667,820.9346460787979,820.2702931803577,0.1464205300083896,0.2794542317543238,0.21454576824567614,0.35471947934547327,2107.089898544105,4629.004389303027
1.4028367346938777,822.056294992623,821.3875122751427,0.14901603343970635,0.28039328865609425,0.21360671134390574,0.3547194793454741,2105.4429403810736,4646.660771497888
1.4170068027210885,823.1874655071649,822.5148614357403,0.15163384625965584,0.28134041712699337,0.21265958287300657,0.354719479345475,2103.781825954837,4664.240003686474
1.4311768707482992,824.3266501299223,823.6510048306096,0.1542683134401766,0.2822935711696758,0.21170642883032426,0.3547194793454759,2102.11014362306,4681.743274854908
1.4453469387755102,825.4713426097649,824.7938179956267,0.15690972043733095,0.2832492360480704,0.21075076395192965,0.3547194793454769,2100.4340576802088,4699.171683983814
1.4595170068027212,826.6174185118947,825.9398395126868,0.1595420204615975,0.2842016060104801,0.2097983939895199,0.3547194793454779,2098.763750501954,4716.526198752528
1.4736870748299322,827.758394869737,827.0835860065331,0.16214020599816428,0.2851416333018155,0.2088583666981845,0.354719479345479,2097.1150904281935,4733.807592275907
1.487857142857143,828.8848895047189,828.2169488516237,0.16466871937149263,0.2860564531035513,0.20794354689644864,0.3547194793454801,2095.510640327958,4751.016359032335
1.5020272108843538,829.984973733809,829.3292130919485,0.16708369656515173,0.28693019535099357,0.2070698046490064,0.35471947934548126,2093.9782337995584,4768.1526280484495
1.5161972789115647,831.0461100634947,830.4083609882993,0.16934144080764751,0.2877470504889084,0.20625294951109155,0.3547194793454825,2092.5455983172274,4785.216115666123
1.5303673469387755,832.0583116106952,831.4436555425143,0.1714108008820252,0.2884957479618704,0.2055042520381296,0.3547194793454838,2091.232500663174,4802.206166798252
1.5516224489795918,833.4757591628515,832.9008084990413,0.17414514969299918,0.2894850393231564,0.20451496067684363,0.35471947934548587,2089.4974391562337,4827.551590562066
1.5728775510204083,834.7786828567858,834.2425629216874,0.176480000356961,0.29032979167606715,0.20367020832393284,0.35471947934548803,2088.0158763449217,4852.726751350806
1.5870476190476193,835.5934771561692,835.080093438322,0.1778564632981492,0.2908277979623834,0.20317220203761657,0.35471947934548953,2087.142451617469,4869.414440252635
1.60121768707483,836.3733259423437,835.8794270958871,0.17911892149626127,0.2912845571674866,0.20271544283251342,0.3547194793454911,2086.3413677854155,4886.025043820506
1.6153877551020408,837.1247230618053,836.647054855378,0.18028968985542457,0.29170814285601937,0.20229185714398065,0.35471947934549275,2085.5984650857395,4902.558401804898
1.6295578231292518,837.853312879178,837.3889102605461,0.18138728434060206,0.2921052541309309,0.20189474586906908,0.3547194793454944,2084.901994345131,4919.014551006568
1.6437278911564626,838.5638253992412,838.1101283821664,0.18242672852666353,0.29248132654337516,0.20151867345662486,0.3547194793454962,2084.2424224614665,4935.39369203426
1.6578979591836736,839.260150463961,838.8150165245239,0.18342011796844834,0.29284073628261664,0.20115926371738332,0.35471947934549797,2083.612074286821,4951.6961575302885
1.6720680272108843,839.945461115046,839.5071273502264,0.18437719410662057,0.293187007816001,0.200812992183999,0.35471947934549986,2083.004768459602,4967.922384594059
1.6862380952380953,840.6223419542646,840.1893691215732,0.1853058396931596,0.2935229931346147,0.20047700686538528,0.35471947934550174,2082.415503035846,4984.072892005612
1.700408163265306,841.2929040431825,840.8641192168311,0.18621247822452722,0.29385101626878385,0.20014898373121612,0.35471947934550374,2081.8402020317567,5000.1482619038725
1.714578231292517,841.9588808028872,841.5333260211387,0.18710238615228572,0.2941729862463282,0.19982701375367182,0.3547194793455058,2081.2755173126825,5016.1491252445285
1.7287482993197278,842.6217051928868,842.1985944315037,0.18797993376712493,0.2944904842447509,0.19950951575524917,0.3547194793455079,2080.7186757418835,5032.076150321948
1.7429183673469388,843.2825706542909,842.8612550524153,0.18884877043217846,0.29480483060892065,0.1991951693910793,0.35471947934551007,2080.16736164205,5047.930033716101
1.7570884353741498,843.9424788115682,843.5224191082572,0.18971196733011852,0.295117136497178,0.19888286350282197,0.3547194793455123,2079.6196262161543,5063.711493136062
1.7712585034013608,844.6022767230168,844.1830216123757,0.1905721280647344,0.29542834389714584,0.19857165610285418,0.3547194793455146,2079.0738173660093,5079.421261740459
1.7854285714285716,845.2626860274873,844.8438552083643,0.1914314749945562,0.29573925686136004,0.19826074313863992,0.354719479345517,2078.528524909883,5095.060083608522
1.7995986394557824,845.9243259073003,845.5055967692508,0.1922919174098947,0.2960505661738213,0.19794943382617872,0.35471947934551945,2077.982537321247,5110.6287101111775
1.8137687074829933,846.5877326360757,846.1688292202224,0.1931551117937682,0.2963628711524854,0.19763712884751458,0.354719479345522,2077.4348034906343,5126.127897000192
1.8279387755102041,847.2534137111837,846.8340825823306,0.1940226810607896,0.29667675897021056,0.1973232410297894,0.3547194793455246,2076.884293609169,5141.558402354637
1.8421088435374149,847.9227950485994,847.5024353054512,0.19490036176969763,0.2969943051222596,0.1970056948777404,0.3547194793455273,2076.3273675844794,5156.92099300352
1.8456513605442177,848.0914634294611,847.6705169905049,0.19512451645665757,0.2970754046127525,0.19692459538724752,0.354719479345528,2076.185131828974,5160.751125980223
1.8491938775510204,848.2607993245117,847.8391491800422,0.19535098359774514,0.297157340752499,0.19684265924750105,0.35471947934552867,2076.0414287222197,5164.577083198555
1.850965136054422,848.3449247416199,847.9232580952987,0.19546136089538446,0.2971972754186973,0.19680272458130274,0.35471947934552905,2075.9713895964114,5166.488499346367
1.8527363945578232,848.4263884077518,848.0059648934422,0.1955592158729252,0.2972326794913418,0.19676732050865822,0.3547194793455294,2075.909296419377,5168.398869985268
1.8536220238095238,848.4653542197383,848.046335315977,0.19560000284395992,0.2972474362765534,0.19675256372344657,0.35471947934552955,2075.8834153382427,5169.353659491673
1.8545076530612246,848.5032202763315,848.08604454894,0.1956358586388378,0.2972604089550874,0.1967395910449127,0.3547194793455297,2075.8606632997157,5170.308182462786
1.856278911564626,848.5769624694814,848.1640608580257,0.195699212441128,0.29728333045254146,0.19671666954745853,0.3547194793455301,2075.8204625969997,5172.216423296522
1.8580501700680274,848.6495410667545,848.2409254268753,0.19575858469595117,0.29730481142035364,0.19669518857964638,0.35471947934553044,2075.7827883567893,5174.123586524918
1.8598214285714287,848.7216503664922,848.3170132494784,0.19581719943920317,0.2973260183193819,0.19667398168061812,0.3547194793455308,2075.7455947901353,5176.029670810763
1.8633639455782314,848.8650813428965,848.4673526310555,0.19593458866071634,0.29736848990979614,0.19663151009020388,0.3547194793455315,2075.6711062981185,5179.83860320648
1.8704489795918369,849.1497875002435,848.7623569878322,0.19617143172012674,0.29745418007182356,0.19654581992817644,0.35471947934553294,2075.520819226506,5187.443540242223
1.8846190476190479,849.7145076869937,849.3384055737172,0.19665299415062798,0.29762841005685536,0.19637158994314466,0.3547194793455359,2075.215247225963,5202.601901397446
1.8987891156462586,850.2776521178159,849.9061159555346,0.19714495561930218,0.29780640242896395,0.19619359757103602,0.3547194793455389,2074.9030765900266,5217.69206240783
1.9129591836734694,850.8423050061782,850.4721000900795,0.19764768400476904,0.29798829028716706,0.19601170971283294,0.354719479345542,2074.584073883945,5232.71469812659
1.9271292517006804,851.410016634219,851.0395777904213,0.19816164149731413,0.2981742408525795,0.1958257591474205,0.35471947934554515,2074.2579458281757,5247.670535383036
1.9412993197278912,851.9816055500634,851.6101581432046,0.198687313315354,0.29836442967792737,0.19563557032207265,0.3547194793455484,2073.9243845308374,5262.560321313898
1.9554693877551022,852.5575433995273,852.1846868308361,0.19922519404444225,0.2985590357049805,0.1954409642950195,0.3547194793455518,2073.5830761561992,5277.384808485438
1.969639455782313,853.1381378012406,852.7636483125601,0.19977578251599845,0.2987582394116692,0.19524176058833076,0.35471947934555526,2073.2337041743485,5292.144747976632
1.983809523809524,853.7236190927343,853.3473564987972,0.20033957966486696,0.2989622220369459,0.19503777796305408,0.3547194793455588,2072.8759507206564,5306.840886218457
1.9979795918367347,854.3141814597882,853.9360450740381,0.2009170877385601,0.29917116529468823,0.19482883470531176,0.35471947934556247,2072.509497097552,5321.473963602046
2.0121496598639457,854.9100024513334,854.5299102681311,0.20150881014472893,0.2993852513185136,0.19461474868148634,0.3547194793455662,2072.134023871306,5336.044713918482
2.0263197278911567,855.5112522669516,855.1291311243522,0.20211525160389737,0.2996046627170389,0.19439533728296107,0.3547194793455701,2071.749210775116,5350.553864188801
2.0404897959183677,856.1180982121265,855.7338791324595,0.2027369184505648,0.29982958268281945,0.1941704173171805,0.354719479345574,2071.35473651804,5365.00213467663
2.0546598639455786,856.7307068747214,856.3443228432893,0.20337431901074854,0.3000601951289449,0.1939398048710551,0.35471947934557807,2070.950278545437,5379.390238985971
2.068829931972789,857.3492452302025,856.9606301200525,0.20402796402477139,0.3002966848420039,0.19370331515799616,0.3547194793455823,2070.535512770681,5393.718884198496
2.083,857.9738812456525,857.5829692798656,0.20469836710038913,0.3005392376460265,0.19346076235397347,0.35471947934558656,2070.1101132876415,5407.9887710290595
2.097170068027211,858.6047842518977,858.2115097169888,0.2053860451913941,0.30078804057564396,0.19321195942435607,0.354719479345591,2069.673752066981,5422.20059398956
2.1113401360544217,859.2421252106749,858.8464222864822,0.20609151909940412,0.30104328205763586,0.1929567179423641,0.35471947934559556,2069.2260986377523,5436.355041556656
2.1255102040816327,859.8860769367728,859.4878795796039,0.20681531399845146,0.3013051521007281,0.19269484789927183,0.3547194793456003,2068.7668197545254,5450.452796341363
2.1396802721088437,860.5368143031944,860.1360561526338,0.20755795998141913,0.3015738424932938,0.19242615750670622,0.35471947934560505,2068.2955790506476,5464.494535259698
2.1538503401360543,861.194514442489,860.7911287380424,0.20831999262773343,0.30184954700874517,0.19215045299125483,0.35471947934561004,2067.812036678019,5478.480929704111
2.1680204081632652,861.8593569502611,861.4532764514628,0.20910195359119663,0.30213246161821267,0.19186753838178733,0.35471947934561515,2067.315848934089,5492.412645715691
2.1821904761904762,862.5315240933253,862.1226810004915,0.2099043912059653,0.30242278470978856,0.1915772152902114,0.35471947934562037,2066.806667877335,5506.290344157194
2.1963605442176872,863.2112010234839,862.7995268979109,0.2107278611091379,0.30272071731378014,0.19127928268621994,0.3547194793456258,2066.284140932204,5520.114680887056
2.210530612244898,863.8985759969715,863.4840016802203,0.21157292687742174,0.3030264633330564,0.1909735366669436,0.35471947934563136,2065.747910485124,5533.886306934479
2.224700680272109,864.5938405991018,864.1762961314163,0.21244016067496274,0.3033402297774344,0.19065977022256556,0.3547194793456371,2065.1976134734214,5547.605868675729
2.2388707482993198,865.2971899737925,864.8766045118127,0.21333014391061048,0.3036622270014783,0.19033777299852164,0.354719479345643,2064.6328809682645,5561.274008011742
2.2530408163265307,866.0088230570184,865.5851247911463,0.21424346790064358,0.30399266894427435,0.19000733105572565,0.3547194793456491,2064.0533377541315,5574.891362547134
2.2672108843537413,866.7289428136746,866.3020588854041,0.2151807345350625,0.30433177337049666,0.1896682266295033,0.35471947934565534,2063.458601906023,5588.458565770639
2.2813809523809527,867.4577564771814,867.0276128967149,0.21614255694491816,0.30467976211184783,0.1893202378881522,0.35471947934566184,2062.848284366009,5601.976247237079
2.2955510204081633,868.1954757910934,867.7619973556101,0.21712956016778406,0.3050368613078273,0.18896313869217263,0.3547194793456685,2062.2219885209624,5615.4450327508375
2.3097210884353743,868.9423172520551,868.5054274649532,0.21814238180905265,0.30540330164499013,0.18859669835500992,0.3547194793456753,2061.579309782936,5628.865544550879
2.323891156462585,869.6985023537754,869.2581233451211,0.2191816726978579,0.30577931859425955,0.18822068140574044,0.35471947934568243,2060.9198351729506,5642.238401497294
2.338061224489796,870.464257831415,870.0203102798831,0.22024809753521218,0.30616515264542504,0.18783484735457495,0.3547194793456897,2060.243142909728,5655.564219259376
2.352231292517007,871.2398159061374,870.7922189626131,0.22134233553348365,0.3065610495385054,0.1874389504614946,0.35471947934569725,2059.54880200391,5668.843610505169
2.366401360544218,872.0254084928479,871.5740824481218,0.2224650537442945,0.30696725061374386,0.18703274938625614,0.354719479345705,2058.8363891826566,5682.077185095375
2.380571428571429,872.8212540404555,872.3661209664601,0.2236168695117911,0.30738397922714705,0.18661602077285294,0.354719479345713,2058.1055127146465,5695.265549660818
2.3947414965986398,873.6276371957076,873.1686042571865,0.22479865854071454,0.307811552209959,0.18618844779004104,0.3547194793457213,2057.3556169276935,5708.409308751172
2.4089115646258503,874.4448163499293,873.981793119462,0.22601115848406475,0.30825023644610366,0.18574976355389636,0.35471947934572984,2056.5862337493545,5721.50906506182
2.4230816326530613,875.2730549219311,874.8059509318475,0.22725512559353772,0.30870030554854033,0.18529969445145963,0.35471947934573866,2055.7968833055174,5734.565419273971
2.4372517006802723,876.112622644966,875.6413462541614,0.22853133511019155,0.30916204000060704,0.18483795999939295,0.35471947934574777,2054.9870736725074,5747.578970226338
2.451421768707483,876.9637962639142,876.4882541212013,0.22984058168213156,0.3096357273071395,0.18436427269286046,0.35471947934575715,2054.1563006120437,5760.5503151055655
2.465591836734694,877.826859967364,877.3469567450417,0.23118367979702192,0.31012166215095466,0.18387833784904536,0.35471947934576686,2053.304047296798,5773.480049645326
2.4868469387755106,879.1443902508696,878.6577620054005,0.23326363032167827,0.31087419126415683,0.18312580873584322,0.354719479345782,2051.984229548167,5792.797932209241
2.508102040816327,880.4903514087966,879.9967713539944,0.235424535175288,0.31165600977085867,0.18234399022914133,0.354719479345798,2050.6130428083434,5812.025531049183
2.529357142857143,881.865805315361,881.3650388582482,0.23766940800652825,0.3124682080135179,0.18153179198648214,0.35471947934581477,2049.188574788086,5831.164844648102
2.5506122448979593,883.2718581065893,882.7636626039983,0.24000137431029808,0.3133119168007169,0.18068808319928312,0.3547194793458325,2047.708842226931,5850.2178693607375
2.5718673469387756,884.7096620161667,884.1937865501872,0.2424236749104343,0.31418830866721514,0.17981169133278488,0.3547194793458511,2046.1717886832619,5869.186601010374
2.593122448979592,886.1804172579482,885.6566024201339,0.2449396694417326,0.315098599133749,0.17890140086625103,0.35471947934587067,2044.575282324816,5888.073036498905
2.614377551020408,887.6853739601629,887.1533516427791,0.2475528398132062,0.3160440479600438,0.17795595203995618,0.3547194793458914,2042.9171137311,5906.879175431801
2.6356326530612244,889.2258341508502,888.6853273463153,0.25026679363183063,0.3170259603835301,0.17697403961646993,0.35471947934591314,2041.1949937208763,5925.607021759628
2.6568877551020407,890.8031537915352,890.2538764026579,0.25308526756276783,0.3180456883350768,0.1759543116649232,0.3547194793459362,2039.4065512199568,5944.258585437633
2.6781428571428574,892.4187448540267,891.8604015191178,0.25601213059812955,0.3191046316216353,0.1748953683783647,0.3547194793459605,2037.5493311870325,5962.835884104771
2.692312925170068,893.517790980219,892.9532349458797,0.2580255606406313,0.31983309352801836,0.17416690647198163,0.3547194793459775,2036.271723535206,5975.180492105735
2.706482993197279,894.6349491358894,894.0640421250961,0.26009016110733296,0.3205800689680111,0.17341993103198886,0.3547194793459951,2034.961646056207,5987.493597375115
2.72065306122449,895.7706818782277,895.1932827742647,0.26220718029750456,0.321346009578098,0.17265399042190202,0.35471947934601344,2033.6183066506492,5999.77580560447
2.734823129251701,896.9254642277275,896.3414290662109,0.26437789458117716,0.3221313771508053,0.17186862284919463,0.35471947934603243,2032.240895407047,6012.027725138279
2.7489931972789114,898.0999014369246,897.5089573032237,0.26660411553153884,0.3229366436829271,0.1710633563170729,0.35471966277906225,2030.8282628045731,6024.249967094041
2.7631632653061224,899.2986574276266,898.6977840897399,0.26890185040775016,0.3237622887548548,0.17023771124514522,0.35472534151426666,2029.370251551265,6036.443182222371
2.7773333333333334,900.527144143027,899.913215505862,0.27128375426915075,0.3246088077337993,0.1693911922662007,0.3547405988032384,2027.8588314696121,6048.608141680998
2.791503401360545,901.787905326341,901.1591451847606,0.273753175141119,0.32547672727247595,0.16852327272752404,0.35476611931369445,2026.2918780940252,6060.745686198985
2.8056734693877554,903.0829311893573,902.4381213376472,0.2763136926144987,0.32636659771543225,0.16763340228456775,0.35480264780224063,2024.6671200207027,6072.856693744305
2.8198435374149664,904.4140229339133,903.7521604406096,0.2789690929475857,0.3272789876567069,0.16672101234329315,0.3548509855485754,2022.9821547064876,6084.942071521115
2.834013605442177,905.782952725296,905.103101654159,0.2817233635620257,0.3282144815111019,0.1657855184888981,0.35491199079282476,2021.2344519614564,6097.002753424569
2.848183673469388,907.1915348786332,906.4927626825931,0.284580695843295,0.32917367822761134,0.1648263217723886,0.35498658103533254,2019.4213521718932,6109.039699878505
2.8623537414965985,908.6416578173897,907.9230099091266,0.28754549094886517,0.3301571901649131,0.1638428098350869,0.3550757362625704,2017.5400626147616,6121.05389871986
2.87652380952381,910.1352970223594,909.3957914493584,0.290622365325923,0.3311656413460155,0.16283435865398446,0.35518050268881024,2015.5876539564736,6133.046366525571
2.8906938775510205,911.6745150587296,910.9131538468483,0.2938161523072522,0.33219966396130224,0.16180033603869776,0.35530199683047226,2013.5610592402352,6145.018150055128
2.9048639455782315,913.2614453998417,912.4772508391812,0.2971318932227605,0.3332598908336,0.16074010916640002,0.35544140982519395,2011.4570795261632,6156.9703275180755
2.919034013605442,914.8982451341469,914.0903469148633,0.3005748036104468,0.3343469386814455,0.1596530613185545,0.3556000119436428,2009.2724053318739,6168.90400920388
2.933204081632653,916.5869786447126,915.7548151883205,0.30415018086702167,0.3354613700444239,0.15853862995557608,0.3557791572520384,2007.0036752321232,6180.820336505216
2.9473741496598636,918.3293413058321,917.4731260238182,0.30786317274409475,0.3366036047508899,0.1573963952491101,0.3559802883860164,2004.6476227578971,6192.720477132217
2.961544217687075,920.1260062521696,919.2478146390596,0.3117182119792319,0.3377737105139737,0.15622628948602635,0.35620494140332,2002.2014351472353,6204.605611373092
2.975714285714286,921.9750868502275,921.081373286577,0.31571765446390254,0.3389709053777722,0.15502909462222778,0.35645475062479887,1999.663617486034,6216.4768973131595
2.989884353741497,923.8686229657526,922.9757644022794,0.31985860824918527,0.34019240660803074,0.1538075933919692,0.35673145247339844,1997.036004839824,6228.335387337033
3.0040544217687075,925.7853461438237,924.9299784623839,0.32412629884972355,0.34143103524914836,0.1525689647508516,0.35703688047451254,1994.3279722527568,6240.181838939319
3.0182244897959185,927.6799044353436,926.9297695652533,0.3284840538979063,0.3426716489522699,0.15132835104773004,0.35737290886126427,1991.5627899137542,6252.016338546215
3.0323945578231295,929.4808150306194,928.922139988038,0.3328714051887831,0.343890697994421,0.15010930200557893,0.35774120987247165,1988.778827490352,6263.837763943074
3.0465646258503405,931.1226147248277,930.8047595735588,0.33723449258710375,0.3450677541292765,0.14893224587072354,0.35814272507949485,1986.0102615466574,6275.643531321513
3.0536496598639458,931.8780597814922,931.6751583670551,0.33940391011474164,0.34563944478633035,0.14836055521366964,0.35835593282695527,1984.6336731503343,6281.539484857218
3.060734693877551,932.5952168443098,932.4932258474541,0.34157095881028215,0.3462020871106368,0.14779791288936325,0.3585773318602783,1983.2585878794982,6287.430267767535
3.0678197278911563,933.2813608139237,933.2627756696481,0.34374233413035565,0.3467581993614485,0.14724180063855144,0.3588068263461205,1981.8807571799696,6293.315541974236
3.074904761904762,933.9444823819757,933.9914224244114,0.34592486638638503,0.3473103271789727,0.14668967282102735,0.35904434186084305,1980.4958469264222,6299.19504949395
3.0890748299319726,935.2310218230625,935.3625213463059,0.3503465724728374,0.34841111868788033,0.14558888131211967,0.3595433300201058,1977.6900849128788,6310.936128001328
3.103244897959184,936.5027809854263,936.6737594596786,0.35487155750926874,0.3495170909560649,0.14448290904393504,0.36007450389382273,1974.818787979333,6322.652883979537
3.117414965986395,937.7906327031326,937.9737991067536,0.35952088082056,0.35063506700526237,0.14336493299473765,0.36063865975451037,1971.8685930816052,6334.345488254561
3.1315850340136056,939.1128798915947,939.2927714397956,0.36430706511691024,0.3517683594670043,0.1422316405329957,0.3612370157053296,1968.8315540233868,6346.014589243163
3.1457551020408165,940.4803343137274,940.6482934256285,0.3692385123301606,0.35291851317913325,0.14108148682086674,0.3618710667395508,1965.7023394188418,6357.661108834814
3.159925170068027,941.8998096214722,942.0507684311699,0.37432187664732486,0.35408625787495257,0.1399137421250474,0.36254249061837246,1962.4767269011302,6369.286127587521
3.1740952380952385,943.3761514434273,943.5068135539008,0.3795631736637079,0.3552719632933827,0.13872803670661737,0.363253094053971,1959.1508993172201,6380.890825658859
3.188265306122449,944.9133186743841,945.0212041392567,0.38496825933752543,0.3564758411996546,0.13752415880034538,0.3640047839752816,1955.721140810654,6392.476454556612
3.20243537414966,946.51492818635,946.5978970950669,0.39054302366769134,0.3576980303897998,0.13630196961020022,0.36479955259641333,1952.1837139246925,6404.044324779432
3.2166054421768706,948.184518249397,948.2405424801594,0.39629346191132236,0.3589386304931049,0.13506136950689504,0.36563946938079017,1948.5348144117556,6415.595801263672
3.2307755102040816,949.9256716803637,949.9527294263058,0.4022256946138533,0.36019771422273755,0.13380228577726241,0.36652667603745026,1944.7705585234553,6427.132302521478
3.244945578231293,951.7420714102556,951.7381004088662,0.40834596595863887,0.3614753308152899,0.1325246691847101,0.3674633824843854,1940.8869840578454,6438.655301462787
3.2591156462585036,953.637524100004,953.6004023417927,0.4146606319567809,0.3627715059222707,0.1312284940777293,0.3684518626841122,1936.8800578534815,6450.166326949777
3.2732857142857146,955.6159685421501,955.5435078320021,0.42117614258875274,0.36408624004554213,0.12991375995445792,0.36949444974704826,1932.7456871213253,6461.666965637967
3.287455782312925,957.6814763812316,957.571422153238,0.42789901907535116,0.3654195063134077,0.1285804936865923,0.3705935299320221,1928.4797338673006,6473.158863890788
3.301625850340136,959.8382483546643,959.6882828901622,0.43483582633371887,0.36677124788395515,0.12722875211604484,0.3717515352774794,1924.0780323701267,6484.643729656822
3.315795918367347,962.0906072714658,961.8983551714387,0.44199314025586156,0.3681413750687277,0.1258586249312723,0.37297093463913167,1919.5364099445019,6496.123334241124
3.329965986394558,964.4429880522657,964.2060235694788,0.4493775092919578,0.3695297621993051,0.12447023780069488,0.3742542229241611,1914.8507113181402,6507.599513917077
3.3441360544217686,966.8999247527964,966.6157809166787,0.45699540976337283,0.3709362442350485,0.12306375576495152,0.37560390831565915,1910.0168269875785,6519.074171328126
3.3583061224489796,969.4660343101735,969.1322139162914,0.4648531943133759,0.3723606131028105,0.12163938689718952,0.3770224972823118,1905.0307259284066,6530.549276626274
3.3724761904761906,972.1459966651827,971.7599852563084,0.47295703291040403,0.3738026137581551,0.12019738624184491,0.37851247717207426,1899.8884930312238,6542.0268682892365
3.386646258503401,974.9445308728069,974.5038118549592,0.481312845847232,0.37526193995889334,0.11873806004110664,0.3800762961976388,1894.586371616538,6553.509053552047
3.400816326530612,977.866366796752,977.3684388294707,0.4899262282324979,0.3767382297443666,0.11726177025563336,0.3817163406380753,1889.1208113481273,6564.998008382296
3.414986394557823,980.9162119848103,980.3586087670866,0.49880236555329704,0.37823106061762013,0.11576893938237988,0.3834349091070824,1883.4885218121951,6576.495976921329
3.429156462585034,984.0987133395223,983.4790258832144,0.5079459400040356,0.37973994443241776,0.11426005556758227,0.38523418377561586,1877.686531955725,6588.0052703071215
3.443326530612245,987.418413234262,986.7343146754963,0.5173610274322735,0.38126432199304394,0.11273567800695608,0.3871161984869433,1871.712255478761,6599.528264788284
3.4574965986394557,990.8796997811583,990.1289727265445,0.5270509849511902,0.3828035573821459,0.1111964426178541,0.3890828037668296,1865.563562149115,6611.067399033166
3.471666666666667,994.4867510370359,993.6673173749062,0.5370183295137069,0.38435693204058613,0.10964306795941385,0.39113562881162567,1859.238854852288,6622.625170533652
3.4858367346938777,998.243473039428,997.3534260665314,0.5472646080366241,0.3859236386334828,0.10807636136651723,0.3932760406329531,1852.7371520032748,6634.2041310004715
3.5000068027210887,1002.1534316988076,1001.1910703203588,0.557790260003505,0.38750277474835165,0.10649722525164831,0.39550510064908556,1846.0581747309188,6645.806880646007
3.514176870748299,1006.2197787365035,1005.1836433935393,0.5685944738583731,0.38909333648449584,0.10490666351550411,0.39782351913859243,1839.202438002268,6657.436061252323
3.52834693877551,1010.4451720500629,1009.3340819150804,0.5796750389210575,0.3906942120074319,0.10330578799256813,0.4002316081086682,1832.171344588635,6669.094347926922
3.5425170068027207,1014.8316911069307,1013.6447819704241,0.5910281949971543,0.39230417515799554,0.10169582484200453,0.4027292332746941,1824.96728049452,6680.784439456946
3.556687074829932,1019.3807482090435,1018.1175103607777,0.6026484823048451,0.39392187922255084,0.10007812077744922,0.4053157659933343,1817.593710185477,6692.5090471849135
3.570857142857143,1024.0929967285913,1022.7533120245178,0.6145285947762379,0.3955458509880107,0.09845414901198929,0.4079900361317274,1810.0552696747009,6704.2708823456
3.585027210884354,1028.9682376797186,1027.5524148857019,0.6266592401878315,0.3971744852226497,0.09682551477735027,0.4107502869816739,1802.3578552762413,6716.072641824955
3.5991972789115647,1034.0053262507195,1032.5141336758913,0.6390290109053548,0.3988060397402732,0.09519396025972686,0.413594133430762,1794.5087056229422,6727.916992327827
3.6133673469387757,1039.2020801628767,1037.636774546899,0.6516242692637197,0.4004386312204543,0.09356136877954571,0.41651852467243156,1786.5164743977725,6739.806552971657
3.6275374149659867,1044.5551919305478,1042.91754253839,0.664429051714858,0.4020702319703912,0.09192976802960885,0.41951971276466565,1778.391291156135,6751.743876357938
3.6417074829931977,1050.060147257128,1048.352454169051,0.6774249958399501,0.403698667823557,0.090301332176443,0.422593228324259,1770.14480763973,6763.7314282112575
3.6558775510204082,1055.7111518984882,1053.9362575666041,0.6905912941189495,0.40532161737579225,0.08867838262420774,0.4257338645644728,1761.7902271117784,6775.771565716517
3.670047619047619,1061.5010693468034,1059.662362624941,0.7039046779688781,0.4069366127599144,0.08706338724008561,0.4289356707454569,1753.3423144854055,6787.866514726979
3.6842176870748298,1067.4213716239863,1065.5227836632173,0.7173394350030725,0.40854104215451165,0.08545895784548838,0.43219195590987675,1744.8173853719074,6800.018346058063
3.6983877551020408,1073.4621053202231,1071.5080969531518,0.7308674617381415,0.41013215421069604,0.08386784578930398,0.43549530352561344,1736.2332726359318,6812.228951122519
3.7125578231292518,1079.6118747694873,1077.607415273271,0.7444583531074881,0.4117070645618037,0.08229293543819628,0.4388375973621855,1727.6092695953084,6824.500017200332
3.7267278911564627,1085.8578439258204,1083.8083813445628,0.7580795291643273,0.4132627645551923,0.08073723544480776,0.4422100586002876,1718.9660496225558,6836.833002669693
3.7408979591836737,1092.1857581022985,1090.097181609033,0.7716963983162426,0.41479613231256746,0.07920386768743255,0.44560329382996183,1710.3255625655593,6849.2291125522415
3.7550680272108843,1098.5758589418256,1096.4547772449807,0.785262860834831,0.41630287303577185,0.07769712696422816,0.4490049189008409,1701.7170606776924,6861.698246995834
3.7692380952380957,1105.0024851544488,1102.8561491171713,0.7987216994990325,0.4177776238253952,0.0762223761746048,0.4523995954388601,1693.1768507378852,6874.2593184657735
3.7834081632653063,1111.4467199000849,1109.282268657798,0.8120337255855256,0.4192171508319906,0.0747828491680094,0.455776378756593,1684.7297996706018,6886.913694611724
3.8046632653061225,1121.1040409278273,1118.925889074976,0.8316419892348489,0.42130359602587714,0.0726964039741229,0.4607842317591476,1672.2875160309497,6906.070096705291
3.825918367346939,1130.690482331259,1128.5149392898409,0.8507021658734982,0.42329339879476446,0.07070660120523556,0.4656904285121805,1660.1930170890134,6925.434804456359
3.8400884353741502,1137.007698275755,1134.84295106969,0.8630403262927187,0.4245612312383297,0.06943876876167027,0.4688865603836043,1652.3639255247144,6938.4587234603105
3.854258503401361,1143.241420439118,1141.09463819292,0.8750395783514998,0.4257787157809536,0.06822128421904634,0.4720104226201581,1644.7498858397582,6951.5722466271845
3.8684285714285718,1149.3705303374522,1147.2487639562662,0.8866632634250017,0.4269430789725497,0.06705692102745034,0.47505152552835045,1637.3741595026895,6964.773490909109
3.8825986394557823,1155.3739829697238,1153.2841238413139,0.8978759576472735,0.42805168926425824,0.06594831073574176,0.47799968425101885,1630.2592244746202,6978.060183980886
3.8967687074829933,1161.2309674217638,1159.1797135081779,0.9086437089880949,0.42910208174528475,0.06489791825471525,0.48084507980523494,1623.4266247738115,6991.429667088289
3.9109387755102043,1166.9210602290634,1164.914890535186,0.9189342461922652,0.43009198229505213,0.06390801770494786,0.48357831052469014,1616.8968378947422,7004.8789010803475
3.9251088435374153,1172.4243680070847,1170.469526266027,0.9287171558001834,0.4310193309395072,0.0629806690604928,0.4861904327496915,1610.6891624809637,7018.404475486312
3.939278911564626,1177.721655771194,1175.8241441851535,0.9379640236866693,0.4318823042789696,0.06211769572103039,0.4886729896082632,1604.8216285126502,7032.002620424237
3.953448979591837,1182.7944571490236,1180.9600411716297,0.9466485375468904,0.4326793369682065,0.061320663031793544,0.49101802661562904,1599.310932274889,7045.669221051245
3.974704081632653,1189.9444762869914,1188.2150418918345,0.9585686607683673,0.43374851423228405,0.060251485767715995,0.4942615672027519,1591.747103228438,7066.2876715108505
3.9959591836734694,1196.494458379784,1194.8819013156194,0.9690972697145743,0.43466344089768505,0.059336559102314966,0.4971559065077566,1585.066249625972,7087.033794349315
4.003044217687075,1198.5355296936846,1196.9645135908668,0.9722865975491841,0.4349338475101508,0.0590661524898492,0.4980394033264961,1583.0424844294334,7093.974518454637
4.01012925170068,1200.5024788742667,1198.9742901194695,0.9753123069202901,0.43518693904169503,0.058813060958305005,0.4988810178290139,1581.1225421602076,7100.926783448252
4.017214285714285,1202.3935871505225,1200.9095197811114,0.978172454737252,0.4354227323628365,0.05857726763716343,0.4996800301317822,1579.307655792582,7107.8898859106
4.024299319727891,1204.207181192308,1202.768545907774,0.9808651951352109,0.4356412693458188,0.05835873065418122,0.5004357305259776,1577.5989966069171,7114.86310784561
4.031384353741497,1205.9416263897272,1204.5497614262097,0.983388767074385,0.4358426181995581,0.0581573818004419,0.5011474136559392,1575.997682058428,7121.845717171128
4.038469387755102,1207.5953181248783,1206.2516024948623,0.9857414790679604,0.43602687510934524,0.05797312489065474,0.5018143713539964,1574.5047854679904,7128.836968142317
4.045554421768708,1209.1666705249213,1207.8725403103635,0.987921690305228,0.43619416630103147,0.05780583369896852,0.5024358837466063,1573.1213480003196,7135.836101687454
4.052639455782313,1210.6541019939443,1209.4110706538381,0.9899277871582445,0.4363446507032444,0.05765534929675561,0.5030112080922134,1571.8483935715014,7142.842345630139
4.059724489795919,1212.0560165420582,1210.8657006029314,0.9917581536607518,0.4364785234662275,0.05752147653377251,0.5035395645816411,1570.686947581382,7149.854914764597
4.066809523809524,1213.3707795191608,1212.2349316396321,0.993411133973475,0.43659602073534204,0.05740397926465796,0.5040201179844793,1569.6380607309454,7156.873010740102
4.071532879818594,1214.1980326627495,1213.0995569543193,0.9944137171460613,0.43666539267654686,0.05733460732345309,0.5043134820876415,1569.001878740089,7161.5544115121
4.076256235827665,1214.9852652471188,1213.9250860727295,0.9953361389732169,0.43672770930397975,0.05727229069602025,0.5045848990136624,1568.4165625583948,7166.2376641034425
4.080979591836735,1215.7319172209598,1214.7110397641923,0.9961778086263273,0.4367830812927702,0.057216918707229766,0.5048340443247638,1567.8824870919398,7170.922521561002
4.085702947845806,1216.4373908272482,1215.4569185979822,0.9969380830104027,0.43683163458727187,0.05716836541272812,0.5050605594038932,1567.4000604120563,7175.608733813492
4.090426303854875,1217.1010400540588,1216.1621969930104,0.9976162519885181,0.4368735135627819,0.057126486437218085,0.5052640429471847,1566.9697331310572,7180.296047430926
4.095149659863946,1217.7221578399074,1216.8263165621795,0.9982115212630911,0.43690888548549134,0.057091114514508635,0.5054440403104318,1566.5920092648003,7184.984205314424
4.099873015873016,1218.29996102439,1217.448679240436,0.9987229940310015,0.43693794704028205,0.05706205295971796,0.5056000303440841,1566.2674578732997,7189.672946302648
4.104596371882087,1218.83357426395,1218.0286417792258,0.9991496559938958,0.43696093434173094,0.057039065658269106,0.5057314099589509,1565.9967225723303,7194.362004684176
4.109319727891157,1219.3220185052332,1218.5655163191382,0.9994903795192361,0.436978139252577,0.057021860747423,0.5058374793132073,1565.7805188930652,7199.051109623016
4.114043083900228,1219.7642258829624,1219.058591530859,0.9997440026133252,0.4369899382949287,0.05701006170507127,0.5059174414737417,1565.6195841703045,7203.739984576524
4.116404761904763,1219.9676583144098,1219.2884945400529,0.9998378541193387,0.43699396440855937,0.0570060355914407,0.5059473709709574,1565.5600313675316,7206.084247751719
4.118766439909297,1220.1591719111827,1219.5072240223285,0.9999097036144806,0.43699685030435514,0.05700314969564483,0.5059704803265981,1565.5144397836002,7208.428347080412
4.121128117913832,1220.3387555033646,1219.7147679735697,0.9999597774931563,0.43699870529213974,0.057001294707860306,0.5059867421406647,1565.482665761557,7210.772246606415
4.123489795918368,1220.506624018745,1219.9112183057325,0.999988868881526,0.43699967739233214,0.05700032260766787,0.5059962953469316,1565.4642060288625,7213.115910661945
4.125064247921391,1220.6124072295072,1220.0361750003146,0.9999976664713086,0.43699993843093754,0.057000061569062455,0.5059992172890552,1565.458623581106,7214.678205542151
4.125851473922903,1220.6636742760986,1220.0969281713253,0.9999994386332648,0.43699998610277174,0.05700001389722827,0.5059998107879843,1565.457499068395,7215.459305104816
4.126245086923658,1220.688964575033,1220.1268941101998,0.9999998259093515,0.4369999959113159,0.057000004088684136,0.5059999410964894,1565.4572533251203,7215.849842468952
4.126638699924414,1220.7140653490856,1220.1565981437745,0.9999999782936667,0.43699999961305314,0.05700000038694686,0.5059999925276182,1565.4571566307416,7216.240371413691
4.126737103174603,1220.7203155533339,1220.1639845528978,0.9999999911430161,0.4369999999145578,0.057000000085442246,0.5059999968750267,1565.4571484772787,7216.338002324006
4.1267863047996975,1220.7234374162526,1220.167671957919,0.9999999950412153,0.4370000000050749,0.05699999999492513,0.5059999981948837,1565.4571460037043,7216.386817579471
4.126835506424792,1220.7265572584301,1220.1713555339531,0.9999999975983673,0.4370000000640255,0.05699999993597446,0.5059999990611144,1565.4571443810814,7216.435632701634
4.126884708049886,1220.7296751909691,1220.1750353104444,0.9999999990895312,0.43700000009812134,0.05699999990187869,0.5059999995665239,1565.4571434348743,7216.4844476903745
4.126933909674981,1220.7327913257548,1220.1787113172181,0.9999999997912239,0.4370000001139852,0.05699999988601476,0.5059999998045335,1565.4571429896203,7216.533262545579
4.12703231292517,1220.7390186759399,1220.1860521462536,0.9999999999976121,0.43700000011837464,0.056999999881625345,0.5059999998748155,1565.457142858658,7216.63089185496
4.127130716175359,1220.7452400478394,1220.1933782412275,1.000000000013671,0.4370000001184442,0.05699999988155577,0.505999999880556,1565.457142848468,7216.728520629004
4.127229119425548,1220.7514555565797,1220.20068972895,1.0000000000164342,0.4370000001182138,0.05699999988178616,0.5059999998817861,1565.4571428467145,7216.826148866993
4.127327522675737,1220.7576652527127,1220.2079867256455,1.0000000000164342,0.4370000001179211,0.056999999882078906,0.5059999998820789,1565.4571428467145,7216.923776568213
4.127425925925926,1220.763869183438,1220.215269346205,1.0000000000164342,0.4370000001176283,0.056999999882371685,0.5059999998823717,1565.4571428467145,7217.021403731957
4.128213151927437,1220.8132984913846,1220.2730262409,1.0000000000164342,0.43700000011528467,0.056999999884715324,0.5059999998847153,1565.4571428467145,7217.802401609929
4.130574829931973,1220.9596086721047,1220.4413638253293,1.0000000000164342,0.43700000010823903,0.05699999989176097,0.5059999998917609,1565.4571428467145,7220.1451852485
4.132936507936509,1221.1033586433155,1220.6033124280368,1.0000000000164342,0.4370000001011715,0.05699999989882848,0.5059999998988285,1565.4571428467145,7222.48764773047
4.137659863945578,1221.3848859900152,1220.9122902169308,1.0000000000164342,0.4370000000869718,0.056999999913028204,0.5059999999130282,1565.4571428467145,7227.171583631492
4.142383219954649,1221.6606021742043,1221.2067276483647,1.0000000000164342,0.43700000007268686,0.056999999927313146,0.5059999999273131,1565.4571428467145,7231.854169220717
4.1471065759637185,1221.9323662865881,1221.4912476887275,1.0000000000164342,0.43700000005831746,0.056999999941682526,0.5059999999416825,1565.4571428467145,7236.535378180287
4.151829931972789,1222.20144871262,1221.7690093191657,1.0000000000164342,0.437000000043864,0.05699999995613596,0.505999999956136,1565.4571428467145,7241.215193587068
4.156553287981859,1222.468717590928,1222.042171247981,1.0000000000164342,0.4370000000293267,0.05699999997067329,0.5059999999706732,1565.4571428467145,7245.893604931519
4.16127664399093,1222.7347662009856,1222.312208701874,1.0000000000164342,0.4370000000147054,0.05699999998529458,0.5059999999852945,1565.4571428467145,7250.570606081765
4.166,1223.0,1222.5801298643996,1.0000000000164342,0.437,0.057,0.506,1565.4571428467145,7255.246193893134
