z,T,t,fs,x,y,w,rhob,p
0.0,556.2446345064044,298.0,0.0,0.2264789872690142,0.26752101273098583,0.35471956393440635,2200.0,2040.0
0.0017358333333333334,572.3531715563777,335.120452029681,3.208155564207482e-07,0.2264791033405473,0.2675208966594527,0.35471956393440635,2199.9997964287804,2043.5812573716962
0.0034716666666666667,587.0867856148951,368.8509686023667,1.1690587041178412e-06,0.22647941023614707,0.26752058976385296,0.35471956393440635,2199.99925818215,2047.317309521302
0.0069433333333333335,612.9764112042151,427.6322470118559,6.005187476172996e-06,0.2264811599545433,0.26751884004545673,0.35471956393440635,2199.996189451181,2055.20474671169
0.010415,634.8414889114124,476.81225777236045,1.772214120602777e-05,0.22648539916537808,0.2675146008346219,0.35471956393440635,2199.988754541884,2063.5729123251676
0.013886666666666667,653.3987512371136,518.2329180328288,3.895198524721257e-05,0.2264930801537096,0.26750691984629044,0.35471956393440635,2199.97528329599,2072.3451265249105
0.02083,682.7323762611652,583.1272631002124,0.0001155765525937557,0.22652080303318795,0.26747919696681205,0.35471956393440635,2199.9266617240987,2090.848461147946
0.027773333333333334,704.2884679909135,630.3649397232333,0.00023944707503363417,0.22656561956766819,0.26743438043233186,0.35471956393440635,2199.848060568874,2110.294524268528
0.034716666666666667,720.2721194691442,665.1329665615428,0.0004068038953252267,0.22662616950771336,0.2673738304922867,0.35471956393440635,2199.7418654939634,2130.3754430979943
0.04166,732.2041541766671,690.9264021361832,0.0006114678882586923,0.22670021723687037,0.2672997827631296,0.35471956393440635,2199.611997419133,2150.8655738585076
0.052075,744.7712306807351,717.9031851551331,0.0009748356729964562,0.22683168422782948,0.2671683157721705,0.35471956393440635,2199.381424986812,2182.019060119947
0.062490000000000004,753.0237336641143,735.4592416749692,0.0013901966261475262,0.22698196242244736,0.2670180375775526,0.35471956393440635,2199.117860660854,2213.348959614426
0.072905,758.495528035643,746.9726379589152,0.0018442053720226228,0.22714622344446506,0.26685377655553494,0.35471956393440635,2198.829772654078,2244.6177401037244
0.08332,762.1634284699975,754.5776366374854,0.0023274439228723335,0.2273210598522702,0.2666789401477298,0.35471956393440635,2198.5231370833408,2275.679987590044
0.09373500000000001,764.6565379302399,759.641763306169,0.0028334196296805445,0.2275041225960423,0.2664958774039577,0.3547195639344064,2198.2020738126976,2306.4488050793148
0.10415,766.3828916798797,763.0490635946993,0.003357708673742393,0.22769381113176482,0.26630618886823515,0.3547195639344064,2197.86938994471,2336.874423763424
0.114565,767.6083009516906,765.3742117182152,0.0038973157436330893,0.22788904175142474,0.2661109582485752,0.3547195639344064,2197.526986132847,2366.9305517523617
0.12498000000000001,768.5063832832574,766.9920458300091,0.0044502197037794115,0.2280890832052434,0.2659109167947566,0.35471956393440646,2197.17614487425,2396.6056496754536
0.135395,769.1907096622161,768.1475482652743,0.00501505911107022,0.22829344292113088,0.26570655707886914,0.35471956393440646,2196.817730062921,2425.897354142705
0.14581,769.735628981435,769.0010064328668,0.005590917399365168,0.22850178928412956,0.2654982107158705,0.3547195639344065,2196.452323299357,2454.8089168012634
0.156225,770.1898274525847,769.6573454778066,0.006177177283355137,0.22871389895952035,0.2652861010404796,0.3547195639344065,2196.0803162775414,2483.346935562879
0.16664,770.5851856378267,770.1852574964765,0.006773422563247121,0.2289296213656152,0.2650703786343848,0.35471956393440657,2195.701973094081,2511.5199145879083
0.17705500000000002,770.942574718621,770.6297071559314,0.007379372117834865,0.2291488547923543,0.26485114520764563,0.35471956393440657,2195.317472132429,2539.3373556704587
0.18747000000000003,771.2756535563346,771.0201185360816,0.007994835638175688,0.22937153038568658,0.2646284696143134,0.3547195639344066,2194.9269341517647,2566.8091900351296
0.19788500000000003,771.5933571979785,771.3757383788824,0.00861968399116323,0.22959760142506705,0.264402398574933,0.3547195639344066,2194.5304410925783,2593.945427820344
0.2083,771.9015278976351,771.7091504025234,0.009253829401699913,0.2298270361533382,0.26417296384666183,0.3547195639344067,2194.1280486519327,2620.7559463904286
0.218715,772.203983934944,772.0285779266278,0.009897212211061062,0.23005981298588699,0.26394018701411304,0.3547195639344067,2193.719794685844,2647.2503668292
0.22913,772.5032197817123,772.3393921798174,0.0105497920327045,0.23029591731080398,0.26370408268919604,0.35471956393440673,2193.3057048213045,2673.4379861163034
0.239545,772.8008645665051,772.64509990631,0.011211541844774475,0.23053533935154266,0.26346466064845736,0.35471956393440673,2192.88579620484,2699.3277441633118
0.24996000000000002,773.0979821198097,772.9479897166283,0.011882444041684514,0.23077807273837628,0.2632219272616237,0.3547195639344068,2192.4600800079497,2724.9282123961025
0.260375,773.3952672303113,773.2495548711156,0.012562487791482576,0.23102411355228888,0.26297588644771114,0.35471956393440685,2192.02856310397,2750.247595397311
0.27079,773.6931739378468,773.5507696665862,0.013251667262991434,0.23127345968355215,0.2627265403164478,0.35471956393440685,2191.5912491930353,2775.293740222941
0.281205,773.9919993470634,773.8522700099334,0.01394998043206473,0.23152611039982698,0.26247388960017304,0.3547195639344069,2191.148139559551,2800.074149995799
0.29162,774.2919383482371,774.1544713203734,0.014657428273387766,0.23178206605375587,0.2622179339462441,0.35471956393440696,2190.6992335850377,2824.5959996516985
0.302035,774.5931193207497,774.4576454628672,0.015374014209024699,0.23204132788344672,0.26195867211655327,0.35471956393440696,2190.2445290980504,2848.866152527532
0.31245,774.8956274131257,774.7619709163747,0.016099743728077393,0.2323038978748644,0.26169610212513555,0.354719563934407,2189.784022615518,2872.8911769979463
0.322865,775.1995197123813,775.0675654672863,0.016834624120554927,0.23256977866554485,0.26143022133445515,0.35471956393440707,2189.317709511617,2896.677362695231
0.33328,775.5048351216917,775.3745075009128,0.01757866428766198,0.23283897347595678,0.2611610265240432,0.35471956393440707,2188.845584138152,2920.230736053344
0.3402233333333333,775.7091830987822,775.5799109783511,0.018079784895006685,0.233020279637709,0.260979720362291,0.3547195639344071,2188.527601636194,2935.806507889522
0.3471666666666667,775.9141818346089,775.7859484597352,0.018584984511202225,0.23320306159077303,0.26079693840922696,0.3547195639344071,2188.207030828306,2951.2830339133893
0.35411000000000004,776.1198362836826,775.9926288548478,0.019094266810709713,0.2333873206645743,0.2606126793354257,0.3547195639344072,2187.883869382884,2966.6619230620554
0.3610533333333334,776.3261505879597,776.199959283538,0.019607635717831546,0.23357305827893102,0.260426941721069,0.35471956393440723,2187.558114809791,2981.9447413424086
0.36799666666666675,776.5331282883042,776.4079455320348,0.02012509539864813,0.23376027594113713,0.26023972405886286,0.35471956393440723,2187.229764465469,2997.133013416549
0.37494000000000005,776.7407724829354,776.6165923949806,0.02064665025392885,0.2339489752433974,0.2600510247566026,0.3547195639344073,2186.898815557443,3012.228224116994
0.38535500000000006,777.0534944536874,776.9308100676114,0.021436671176319668,0.2342348059576871,0.2597651940423129,0.35471956393440734,2186.397513424146,3034.699704050282
0.39577000000000007,777.367730665396,777.24653468979,0.022235933266328244,0.23452398013980938,0.25947601986019064,0.35471956393440734,2185.890347373946,3056.9697688115657
0.406185,777.683488825127,777.5637760568108,0.02304445417040371,0.23481650417427502,0.259183495825725,0.3547195639344074,2185.3773062094147,3079.0429680307625
0.4166,778.0007762162476,777.8825428719271,0.023862252589734963,0.23511238482720132,0.2588876151727987,0.35471956393440746,2184.858378063845,3100.923683163728
0.4235433333333334,778.2131542080423,778.095905544258,0.024412615410495442,0.23531150689310865,0.25868849310689135,0.3547195639344075,2184.509149267094,3115.405982209918
0.4304866666666667,778.4262170625084,778.3099520593133,0.02496711640877738,0.23551212615763856,0.25848787384236144,0.35471956393440757,2184.1572946193555,3129.805825553881
0.43743,778.6399668380617,778.5246846520331,0.02552576186891309,0.23571424489447157,0.2582857551055284,0.35471956393440757,2183.8028101329514,3144.1243975526413
0.44437333333333334,778.8544055953477,778.7401055284804,0.026088558264974762,0.2359178654459364,0.2580821345540636,0.3547195639344076,2183.445691699805,3158.3628546406176
0.4513166666666667,779.0695354035961,778.9562168798085,0.026655512257595836,0.23612299022185987,0.2578770097781401,0.3547195639344077,2183.085935093459,3172.5223262544646
0.45826,779.2853583453308,779.1730208926678,0.02722663069092801,0.236329621698466,0.25767037830153394,0.3547195639344077,2182.7235359710057,3186.6039157189302
0.46520333333333336,779.5018765198514,779.3905197569491,0.027801920589722588,0.23653776241732,0.25746223758268,0.35471956393440773,2182.3584898749386,3200.6087010956794
0.4721466666666667,779.7190920457996,779.6087156715422,0.02838138915652651,0.23674741498431373,0.25725258501568626,0.3547195639344078,2181.9907922349344,3214.5377359969443
0.47909,779.9370070630433,779.8276108486101,0.028965043768985073,0.23695858206869,0.25704141793130997,0.3547195639344078,2181.6204383695604,3228.392050365751
0.4860333333333333,780.1556237340556,780.0472075167557,0.02955289197724433,0.23717126640210254,0.25682873359789743,0.35471956393440784,2181.247423487925,3242.1726512243713
0.4929766666666667,780.3749442449124,780.267507923366,0.03014494150144714,0.23738547077771027,0.2566145292222897,0.3547195639344079,2180.8717426912676,3255.8805233925686
0.49992000000000003,780.5949708060156,780.48851433634,0.03074120022931749,0.23760119804930316,0.25639880195069686,0.35471956393440796,2180.493390974488,3269.516630177095
0.5068633333333333,780.8157056526055,780.710229045362,0.031341676213828405,0.23781845113045844,0.2561815488695416,0.354719563934408,2180.112363227631,3283.0819140338526
0.5138066666666666,781.0371510451243,780.9326543628334,0.0319463776709491,0.23803723299372578,0.25596276700627424,0.354719563934408,2179.7286542373113,3296.5772972040063
0.52075,781.2593092694641,781.1557926245547,0.03255531297746743,0.2382575466698391,0.2557424533301609,0.35471956393440807,2179.342258688098,3310.0036823253085
0.5276933333333335,781.4821826371364,781.3796461902195,0.03316849066888415,0.2384793952469549,0.25552060475304506,0.3547195639344081,2178.9531711638506,3323.361953019796
0.5346366666666668,781.7057734853809,781.6042174437721,0.03378591943737555,0.23870278186991528,0.25529721813008477,0.3547195639344082,2178.5613861490096,3336.6529744589634
0.5415800000000001,781.9300841772317,781.8295087936641,0.03440760812982151,0.23892770973953412,0.25507229026046596,0.35471956393440823,2178.1668980298514,3349.877593907473
0.5485233333333334,782.1551171015551,782.0555226730365,0.03503356574589595,0.23915418211190645,0.2548458178880936,0.3547195639344083,2177.769701095697,3363.0366412463795
0.5554666666666667,782.3808746730646,782.2822615398477,0.035663801436217016,0.2393822022977392,0.2546177977022608,0.3547195639344083,2177.3697895400874,3376.130929476802
0.5624100000000001,782.607359332324,782.5097278769632,0.03629832450055447,0.23961177366170258,0.25438822633829744,0.35471956393440834,2176.9671574619197,3389.1612552049455
0.5693533333333334,782.8345735457416,782.7379241922179,0.0369371443860918,0.23984289962180125,0.25415710037819883,0.3547195639344084,2176.5617988665513,3402.128399109298
0.5762966666666667,783.0625198055595,782.9668530184588,0.037580270685740845,0.24007558364876455,0.2539244163512354,0.35471956393440846,2176.153707666868,3415.0331263908024
0.58324,783.291200629842,783.1965169135742,0.03822771313650657,0.24030982926545502,0.2536901707345449,0.3547195639344085,2175.742877684323,3427.876187206759
0.5901833333333333,783.5206185624636,783.4269184605157,0.03887948161790017,0.2405456400462942,0.2534543599537058,0.35471956393440857,2175.3293026499446,3440.658317089168
0.5971266666666667,783.7507761730997,783.658060267314,0.03953558615039826,0.24078301961670492,0.2532169803832951,0.3547195639344086,2174.912976205309,3453.380237348193
0.60407,783.981676057222,783.8899449670926,0.040196036893946345,0.2410219716525703,0.2529780283474298,0.3547195639344087,2174.4938919034958,3466.0426554613923
0.6110133333333333,784.2133208360974,784.1225752180819,0.04086084414650492,0.24126249987970727,0.2527375001202927,0.35471956393440873,2174.072043210008,3478.646265449319
0.6179566666666667,784.4457131567937,784.3559537036327,0.04153001834263617,0.24150460807335558,0.2524953919266444,0.3547195639344088,2173.6474235036685,3491.19174823808
0.6249,784.6788556921921,784.5900831322339,0.04220357005212981,0.2417483000576805,0.2522516999423195,0.35471956393440884,2173.220026077493,3503.6797720093964
0.6318433333333333,784.9127511410068,784.8249662375318,0.04288150997866642,0.2419935797052891,0.2520064202947109,0.3547195639344089,2172.789844139537,3516.110992538696
0.6387866666666667,785.147402227814,785.0606057783546,0.04356384895851673,0.24224045093675992,0.2517595490632401,0.35471956393440895,2172.3568708137227,3528.4860535217276
0.64573,785.3828117030912,785.2970045387401,0.0442505979592754,0.24248891772018452,0.2515110822798155,0.354719563934409,2171.921099140641,3540.8055868901824
0.6526733333333333,785.6189823432655,785.5341653279706,0.04494176807862792,0.2427389840707216,0.25126101592927835,0.35471956393440907,2171.4825220783364,3553.07021311676
0.6596166666666667,785.8559169507774,785.7720909806126,0.045637370543149154,0.24299065405016224,0.25100934594983776,0.3547195639344092,2171.0411325030627,3565.2805415101166
0.66656,786.093618354155,786.0107843565623,0.04633741670713236,0.24324393176650616,0.25075606823349383,0.35471956393440923,2170.5969232100374,3577.437170500102
0.6735033333333333,786.3320894081073,786.2502483411016,0.04704191805144745,0.24349882137354875,0.2505011786264512,0.3547195639344093,2170.1498869141546,3589.5406879136763
0.6804466666666666,786.5713329936343,786.4904858449586,0.04775088618242714,0.24375532707047803,0.250244672929522,0.35471956393440934,2169.7000162506993,3601.5916712418707
0.68739,786.8113520181575,786.731499804381,0.04846433283077996,0.24401345310148123,0.24998654689851876,0.3547195639344094,2169.247303776034,3613.5906878981573
0.6943333333333334,787.052149415676,786.9732931812164,0.04918226985052897,0.24427320375536124,0.24972679624463875,0.35471956393440945,2168.7917419682744,3625.538295468553
0.7012766666666668,787.2937281469493,787.2158689630087,0.04990470921797517,0.24453458336516098,0.24946541663483904,0.35471956393440957,2168.3333232279424,3637.435041953789
0.7082200000000001,787.5360911997141,787.4592301631029,0.050631663030684504,0.24479759630779732,0.24920240369220267,0.3547195639344096,2167.8720398786154,3649.2814660038516
0.7151633333333334,787.779241588939,787.7033798207705,0.05136314350649756,0.2450622470037028,0.2489377529962972,0.3547195639344097,2167.4078841675487,3661.0780971451795
0.7221066666666668,788.0231823571246,787.9483210013483,0.05209916298256094,0.24532853991647485,0.24867146008352517,0.3547195639344098,2166.9408482662943,3672.825456000814
0.7290500000000001,788.2679165746557,788.1940567964011,0.0528397339143795,0.2455964795525332,0.2484035204474668,0.35471956393440984,2166.4709242713016,3684.524054503752
0.7359933333333334,788.5134473402189,788.4405903239059,0.053584868874888565,0.24586607046078401,0.24813392953921598,0.3547195639344099,2165.998104204503,3696.1743961037755
0.7429366666666668,788.7597777812933,788.6879247284647,0.05433458055354535,0.2461373172322914,0.2478626827677086,0.35471956393441,2165.5223800138942,3707.776975967988
0.7498800000000001,789.0069110547298,788.9360631815506,0.05508888175543861,0.24641022449995495,0.24758977550004505,0.35471956393441006,2165.0437435740987,3719.332281175304
0.7568233333333334,789.2548503474376,789.1850088817905,0.05584778540041628,0.24668479693819437,0.24731520306180566,0.3547195639344101,2164.5621866869187,3730.8407909051098
0.7637666666666667,789.5035988771948,789.4347650552942,0.056611304522229934,0.24696103926263988,0.24703896073736012,0.35471956393441023,2164.07770108188,3742.3029766203144
0.77071,789.7531598936134,789.685334956035,0.05737945226769567,0.24723895622982858,0.24676104377017144,0.3547195639344103,2163.590278416764,3753.719302245001
0.7776533333333333,790.0035366792803,789.936721866295,0.058152241895870954,0.24751855263690667,0.24648144736309335,0.3547195639344104,2163.0999102781316,3765.0902243368637
0.7845966666666666,790.2547325511188,790.188929097183,0.05892968677724673,0.24779983332133715,0.24620016667866285,0.35471956393441045,2162.606588181832,3776.416192254646
0.79154,790.5067508620067,790.4419599892404,0.05971180039295463,0.24808280316061299,0.24591719683938704,0.35471956393441056,2162.1103035735105,3787.697648320734
0.7984833333333333,790.7595950027093,790.6958179131556,0.0604985963339886,0.2483674670719754,0.2456325329280246,0.3547195639344106,2161.6110478290984,3798.935027979113
0.8054266666666666,791.0132684041852,790.950506270598,0.0612900883004411,0.24865383001213784,0.24534616998786216,0.35471956393441073,2161.1088122553,3810.1287599488337
0.81237,791.267774540345,791.2060284952056,0.06208629010075343,0.24894189697701427,0.24505810302298572,0.3547195639344108,2160.6035880900677,3821.2792663731693
0.8193133333333334,791.5231169313571,791.46238805375,0.06288721565098032,0.2492316730014535,0.2447683269985465,0.3547195639344109,2160.095366503068,3832.3869629646197
0.8262566666666668,791.7792991476078,791.7195884475126,0.0636928789740689,0.24952316315897802,0.24447683684102198,0.354719563934411,2159.58413859614,3843.45225914592
0.8332,792.0363248144581,791.9776332139186,0.0645032941991523,0.24981637256152878,0.24418362743847122,0.35471956393441106,2159.069895403744,3854.4755581872046
0.8401433333333335,792.2941976179615,792.2365259284761,0.06531847556085851,0.25011130635921475,0.24388869364078525,0.3547195639344112,2158.552627893397,3865.45725733949
0.8470866666666668,792.5529213117429,792.4962702070818,0.06613843739863512,0.2504079697400689,0.24359203025993112,0.3547195639344113,2158.032326966106,3876.397747964601
0.8540300000000001,792.8124997252874,792.7568697087685,0.06696319415609116,0.2507063679298098,0.24329363207019017,0.3547195639344114,2157.508983456782,3887.297415661718
0.8609733333333334,793.0729367739372,793.0183281389833,0.06779276038035727,0.2510065061916105,0.2429934938083895,0.35471956393441145,2156.982588134647,3898.1566403906713
0.8679166666666667,793.3342364709604,793.2806492535035,0.06862715072146608,0.251308389825874,0.24269161017412602,0.35471956393441156,2156.4531317036276,3908.975796592145
0.8748600000000001,793.596402942138,793.5438368631222,0.06946637993175524,0.25161202417001743,0.24238797582998262,0.3547195639344117,2155.9206048027327,3919.7552533049384
0.8818033333333334,793.8594404434114,793.8078948392613,0.07031046286529596,0.25191741459826517,0.24208258540173477,0.3547195639344118,2155.3849980064188,3930.4953742804496
0.8887466666666667,794.1233533822541,794.0728271207048,0.07115941447735086,0.2522245665214531,0.2417754334785469,0.3547195639344119,2154.8463018249286,3941.1965180945376
0.89569,794.3881463435771,794.3386377216852,0.0720132498238654,0.25253348538684395,0.24146651461315605,0.354719563934412,2154.304506704622,3951.859038256954
0.9026333333333333,794.6538241211613,794.6053307416075,0.07287198406099919,0.2528441766779583,0.24115582332204172,0.3547195639344121,2153.759603028265,3962.483283318515
0.9095766666666667,794.9203917558276,794.8729103767557,0.07373563244470392,0.2531566459144215,0.2408433540855785,0.35471956393441223,2153.211581115302,3973.069596976242
0.91652,795.1878545818332,795.1413809344047,0.07460421033035634,0.25347089865183114,0.24052910134816882,0.35471956393441234,2152.6604312220893,3983.6183181766805
0.9234633333333333,795.456218283311,795.4107468498493,0.07547773317245768,0.25378694048164824,0.24021305951835178,0.35471956393441245,2152.1061435420825,3994.1297812176654
0.9304066666666667,795.7254889629855,795.6810127069832,0.07635621652441212,0.2541047770311169,0.23989522296888316,0.35471956393441256,2151.548708205981,4004.6043158488183
0.9373500000000001,795.9956732258967,795.9521832631941,0.07723967603840087,0.25442441396321885,0.23957558603678117,0.3547195639344127,2150.9881152818048,4015.0422473711124
0.9442933333333334,796.2667782814865,796.2242634795251,0.07812812746537155,0.2547458569766699,0.23925414302333012,0.3547195639344128,2150.4243547749024,4025.4438967358988
0.9512366666666667,796.5388120681594,796.497258557263,0.07902158665516758,0.2550691118059663,0.23893088819403369,0.3547195639344129,2149.857416627868,4035.8095806438355
0.95818,796.8117834053526,796.7711739823905,0.07992006955682754,0.25539418422149335,0.23860581577850662,0.354719563934413,2149.2872907203546,4046.1396116442675
0.9651233333333333,797.0857021792956,797.0460155796775,0.08082359221909195,0.25572108002970867,0.23827891997029133,0.3547195639344132,2148.7139668687482,4056.4342982356875
0.9720666666666666,797.3605795700207,797.3217895786148,0.08173217079116274,0.2560498050734168,0.23795019492658318,0.3547195639344133,2148.1374348256877,4066.6939449680385
0.9790099999999999,797.6364283288713,797.5985026939353,0.08264582152377295,0.2563803652321565,0.23761963476784348,0.3547195639344134,2147.557684279386,4076.9188525477707
0.9859533333333333,797.9132631178074,797.8761622241568,0.08356456077063588,0.2567127664227251,0.23728723357727494,0.35471956393441356,2146.974704852713,4087.1093179467503
0.9928966666666668,798.1911009242801,798.1547761724605,0.08448840499036178,0.25704701459987145,0.23695298540012855,0.3547195639344137,2146.3884861019733,4097.265634516331
0.9998400000000001,798.4699615683994,798.4343533953629,0.08541737074895007,0.25738311575719824,0.2366168842428018,0.3547195639344138,2145.7990175153304,4107.388092108199
1.0067833333333334,798.7498683226677,798.7149037861061,0.08635147472299354,0.2577210759283208,0.2362789240716792,0.35471956393441395,2145.2062885107725,4117.476977203899
1.0137266666666667,799.0308486686747,798.9964385016357,0.0872907337037647,0.25806090118834596,0.23593909881165404,0.35471956393441406,2144.610288433517,4127.532573055381
1.02067,799.3129352199808,799.2789702445776,0.08823516460239993,0.25840259765574736,0.23559740234425267,0.35471956393441423,2144.0110065527233,4137.555159839356
1.0276133333333333,799.5961668458554,799.5625136150063,0.08918478445645414,0.25874617149473694,0.23525382850526302,0.3547195639344144,2143.4084320573315,4147.545014828828
1.0345566666666666,799.8805900365608,799.8470855513108,0.09013961043817392,0.25909162891825854,0.23490837108174148,0.3547195639344145,2142.802554050817,4157.502412585844
1.0415,800.1662605571898,800.132705885504,0.09109965986493561,0.2594389761917638,0.23456102380823607,0.3547195639344147,2142.1933615445614,4167.427625180226
1.0484433333333336,800.4532454432542,800.4193980464332,0.09206495021242361,0.25978821963798104,0.234211780362019,0.35471956393441484,2141.5808434494934,4177.320922439989
1.055386666666667,800.7416253964392,800.7071899552011,0.09303549913129637,0.26013936564294365,0.23386063435705637,0.35471956393441495,2140.964988565516,4187.182572240035
1.0588583333333337,800.8863681741758,800.8515085501969,0.09352275112379071,0.26031565411975033,0.23368434588024964,0.35471956393441506,2140.65580629405,4192.101612601063
1.0623300000000002,801.0314976458784,800.9961151823852,0.09401132446837726,0.2604924206636583,0.23350757933634167,0.3547195639344151,2140.3457855680517,4197.012840837366
1.0658016666666668,801.1770291006957,801.1410151695453,0.09450122143094335,0.260669666094469,0.23333033390553098,0.3547195639344152,2140.0349249497194,4201.916290041922
1.0692733333333335,801.322979313849,801.2862143888275,0.09499244429338004,0.2608473912377738,0.2331526087622262,0.3547195639344153,2139.7232229910946,4206.811993258629
1.0727450000000003,801.4693666841695,801.4317193483126,0.09548499535485773,0.2610255969254159,0.23297440307458414,0.35471956393441534,2139.410678233256,4211.6999834981125
1.0762166666666668,801.6162113812327,801.5775372685146,0.09597887693327116,0.2612042839960129,0.2327957160039871,0.35471956393441545,2139.0972892053996,4216.580293754801
1.0796883333333334,801.7635355019772,801.7236761752094,0.09647409136687686,0.2613834532955495,0.23261654670445045,0.3547195639344155,2138.783054423801,4221.452957025293
1.0831600000000001,801.9113632364473,801.8701450051458,0.09697064101614981,0.261563105678049,0.23243689432195097,0.3547195639344156,2138.467972390638,4226.318006328139
1.0866316666666669,802.059721042011,802.0169537263351,0.09746852826589061,0.2617432420063357,0.23225675799366433,0.35471956393441567,2138.152041592652,4231.175474725074
1.0901033333333334,802.2086378250274,802.1641134747789,0.09796775552761779,0.26192386315290034,0.23207613684709963,0.3547195639344158,2137.835260499632,4236.025395343782
1.093575,802.3581451284992,802.3116367096083,0.0984683252422838,0.26210497000088323,0.23189502999911674,0.35471956393441584,2137.5176275626886,4240.867801402238
1.0970466666666667,802.5082773237115,802.4595373887003,0.09897023988335925,0.2622865634451896,0.23171343655481041,0.35471956393441595,2137.1991412122993,4245.702726234649
1.1005183333333335,802.6590718032353,802.6078311668575,0.09947350196033357,0.26246864439375633,0.23153135560624372,0.354719563934416,2136.8797998560844,4250.530203319015
1.10399,802.8105691719646,802.7565356185708,0.09997811402268587,0.26265121376898853,0.23134878623101146,0.3547195639344161,2136.5596018762903,4255.350266306276
1.1074616666666668,802.9628134320434,802.9056704871857,0.1004840786643847,0.26283427250938807,0.23116572749061198,0.35471956393441617,2136.2385456269335,4260.162949051012
1.1109333333333336,803.1158521566504,803.0552579619276,0.10099139852897832,0.2630178215713942,0.2309821784286058,0.3547195639344163,2135.916629430569,4264.968285643559
1.113247777777778,803.2183445184719,803.1552465863947,0.10133036600396488,0.26314046049493456,0.23085953950506546,0.35471956393441634,2135.701540040513,4268.167779131839
1.1155622222222223,803.321228845329,803.2554555277444,0.10166993781310547,0.26326331806744735,0.23073668193255265,0.3547195639344164,2135.486067174535,4271.364033182367
1.1178766666666669,803.4245220632972,803.3558935794584,0.10201011478416677,0.26338639458841984,0.23061360541158016,0.35471956393441645,2135.2702103073843,4274.557058113879
1.1201911111111114,803.5282418865179,803.4565702406305,0.10235089775905648,0.2635096903624554,0.2304903096375446,0.3547195639344165,2135.053968904832,4277.7468643144
1.1225055555555556,803.6324068241503,803.5574957674464,0.1026922875949113,0.2636332056996673,0.2303667943003326,0.35471956393441656,2134.8373424229885,4280.933462245966
1.1248200000000002,803.7370361828772,803.6586812264368,0.10303428516526514,0.2637569409161015,0.23024305908389847,0.3547195639344166,2134.620330307561,4284.116862449336
1.1271344444444447,803.8421500643584,803.7601385491022,0.10337689136130007,0.2638808963341889,0.2301191036658111,0.35471956393441667,2134.4029319930537,4287.297075548676
1.129448888888889,803.947769357012,803.8618805874055,0.10372010709318291,0.26400507228322906,0.22999492771677088,0.3547195639344168,2134.1851469019284,4290.474112256186
1.1317633333333335,804.0539157214992,803.9639211695024,0.10406393329148851,0.2641294690999055,0.2298705309000945,0.35471956393441684,2133.966974443695,4293.64798337662
1.134077777777778,804.1606115692891,804.0662751549528,0.10440837090870984,0.26425408712883147,0.22974591287116855,0.3547195639344169,2133.748414013956,4296.818699811661
1.1363922222222222,804.2678800337009,804.1689584885199,0.10475342092085493,0.26437892672312807,0.229621073276872,0.35471956393441695,2133.529464993392,4299.986272564115
1.1387066666666668,804.3757449328516,804.2719882515197,0.10509908432912825,0.26450398824503246,0.22949601175496756,0.354719563934417,2133.310126746697,4303.150712741871
1.1410211111111113,804.484230723995,804.37538270954,0.1054453621616925,0.26462927206653547,0.22937072793346447,0.35471956393441706,2133.090398621456,4306.312031561564
1.1433355555555555,804.5933624488011,804.4791613552154,0.10579225547550611,0.2647547785700463,0.2292452214299537,0.3547195639344171,2132.870279946985,4309.4702403519095
1.14565,804.7031656692196,804.5833449446102,0.10613976535822864,0.26488050814908165,0.2291194918509184,0.35471956393441717,2132.6497700331174,4312.625350556639
1.1479644444444446,804.8136663936823,804.6879555256558,0.10648789293018396,0.2650064612089762,0.22899353879102377,0.3547195639344172,2132.428868168958,4315.777373736975
1.1502788888888889,804.9248909935346,804.7930164570001,0.10683663934637007,0.2651326381676101,0.22886736183238987,0.35471956393441734,2132.2075736216134,4318.926321573603
1.1525933333333334,805.0368661097334,804.8985524155783,0.1071860057985007,0.26525903945614704,0.22874096054385296,0.3547195639344174,2131.9858856348887,4322.072205868074
1.1549077777777779,805.1496185500267,805.0045893912003,0.10753599351706086,0.26538566551977827,0.22861433448022175,0.35471956393441745,2131.763803427988,4325.215038543575
1.1572222222222222,805.2631751770177,805.1111546664893,0.10788660377335828,0.2655125168184647,0.22848748318153528,0.3547195639344175,2131.541326194214,4328.354831645029
1.1595366666666667,805.3775627877118,805.218276780602,0.108237837881547,0.2656395938276693,0.22836040617233072,0.35471956393441756,2131.318453099678,4331.491597338458
1.1618511111111112,805.4928079853621,805.3259854753168,0.10858969720059963,0.26576689703907025,0.22823310296092977,0.3547195639344176,2131.0951832820538,4334.625347909571
1.1641655555555555,805.608937044635,805.434311622303,0.10894218313620109,0.2658944269612463,0.2281055730387537,0.3547195639344177,2130.871515849374,4337.756095761544
1.16648,805.7259757713233,805.5432871306672,0.10929529714253618,0.26602218412032386,0.22797781587967622,0.3547195639344178,2130.6474498788975,4340.883853411948
1.1687944444444445,805.8439493580404,805.6529448342375,0.10964904072394002,0.26615016906057326,0.2278498309394267,0.35471956393441784,2130.422984416058,4344.0086334888
1.171108888888889,805.9628822374957,805.763318358453,0.11000341543638238,0.2662783823449469,0.22772161765505317,0.3547195639344179,2130.198118473525,4347.130448725749
1.1734233333333335,806.0827979351177,805.874441967196,0.11035842288875396,0.26640682455554354,0.22759317544445648,0.35471956393441795,2129.9728510303903,4350.249311956347
1.1757377777777778,806.203718922899,805.9863503904061,0.11071406474392541,0.2665354962939923,0.22746450370600765,0.35471956393441806,2129.7471810314905,4353.365236107472
1.1780522222222223,806.3256664764345,806.0990786338368,0.11107034271954981,0.2666643981817426,0.22733560181825743,0.3547195639344181,2129.5211073869004,4356.478234191862
1.1803666666666668,806.448660537149,806.212661772851,0.11142725858858152,0.2667935308602517,0.2272064691397482,0.35471956393441817,2129.294628971606,4359.5883192998435
1.1849955555555558,806.6978605044106,806.442532065953,0.11214301137618612,0.26705249125577735,0.22694750874422265,0.35471956393441834,2128.840453152751,4365.7998032811975
1.1896244444444444,806.951446947395,806.6762346601372,0.11286133839613241,0.2673123830122936,0.22668761698770637,0.35471956393441845,2128.384643873151,4371.999793963553
1.1919388888888889,807.0799173886447,806.7946049542471,0.11322147225815046,0.26744267996532745,0.22655732003467255,0.3547195639344185,2128.1561235033923,4375.095512586958
1.1942533333333334,807.209519391482,806.9140291945356,0.11358225580079215,0.2675732119737521,0.22642678802624785,0.3547195639344186,2127.927190883435,4378.188397850997
1.1965677777777777,807.3402605305411,807.0345364366585,0.11394369117085594,0.26770397981428257,0.2262960201857175,0.35471956393441867,2127.697844651042,4381.278463099963
1.1988822222222222,807.4721463460959,807.156153949573,0.11430578056241697,0.26783498428073815,0.22616501571926187,0.3547195639344187,2127.46808341398,4384.365721667329
1.2011966666666667,807.6051803261165,807.2789070133855,0.11466852621425946,0.26796622618311433,0.22603377381688566,0.35471956393441884,2127.2379057516428,4387.4501868632415
1.2035111111111112,807.7393639056857,807.4028187360839,0.11503193040700302,0.2680977063465427,0.22590229365345735,0.3547195639344189,2127.007310216882,4390.531871962034
1.2058255555555557,807.8746964835132,807.5279098920528,0.11539599545994911,0.2682294256101496,0.2257705743898503,0.35471956393441895,2126.776295338,4393.610790189862
1.20814,808.0111754550015,807.6541987847928,0.1157607237276787,0.2683613848258262,0.22563861517417377,0.35471956393441906,2126.5448596209135,4396.686954712579
1.2116116666666668,808.2180329075824,807.8459115417974,0.1163090648846596,0.2685597754508491,0.22544022454915094,0.35471956393441917,2126.196913656474,4401.296066919673
1.2150833333333333,808.4274357608036,808.0403957079426,0.11685891181747797,0.26875871086775144,0.22524128913224858,0.3547195639344193,2125.8480122127326,4405.89905655912
1.2185549999999998,808.6393517764429,808.237679198179,0.11741027280406145,0.26895819407149957,0.22504180592850045,0.3547195639344194,2125.498150036988,4410.495966954654
1.2220266666666666,808.8537404939217,808.4377760331913,0.11796315620235787,0.2691582280860111,0.2248417719139889,0.3547195639344195,2125.1473218257665,4415.086840851498
1.2254983333333334,809.0705540624685,808.6406865845418,0.11851757041917843,0.2693588159528824,0.22464118404711755,0.3547195639344196,2124.795522244585,4419.67172034949
1.22897,809.2897381447277,808.8463980940917,0.11907352387942224,0.26955996072025434,0.22444003927974562,0.3547195639344197,2124.442745947483,4424.250646844746
1.2324416666666667,809.5112328635524,809.0548854320682,0.1196310249962441,0.26976166543201846,0.22423833456798153,0.35471956393441983,2124.0889875959547,4428.823660980263
1.2359133333333334,809.7349737652379,809.2661120519733,0.12019008214264779,0.2699639331175395,0.22403606688246042,0.35471956393441995,2123.7342418769695,4433.390802605665
1.239385,809.960892774932,809.4800310973043,0.12075070362489429,0.27016676678203505,0.22383323321796497,0.3547195639344201,2123.378503519849,4437.95211074601
1.2428566666666667,810.1889191231222,809.6965866144986,0.12131289765801496,0.270370169397715,0.22362983060228495,0.3547195639344202,2123.021767311804,4442.507623579407
1.2463283333333335,810.4189802256705,809.9157148282511,0.12187667234361929,0.2705741438957536,0.22342585610424634,0.35471956393442033,2122.664028112016,4447.057378423009
1.2498,810.6510025035915,810.1373454388855,0.1224420356500919,0.27077869315912395,0.22322130684087602,0.35471956393442045,2122.3052808642033,4451.60141172679
1.2521144444444445,810.8067370972658,810.2864522747874,0.12281983095550521,0.2709153800479658,0.2230846199520342,0.35471956393442056,2122.065553551691,4454.627606237083
1.2544288888888888,810.9632887107189,810.4366143765084,0.12319833806861775,0.27105232446986444,0.22294767553013556,0.3547195639344206,2121.8253745666875,4457.651284004217
1.2567433333333333,811.1206357156939,810.5878076925176,0.12357755923091658,0.27118952723579315,0.22281047276420682,0.3547195639344207,2121.5847424868734,4460.672455190768
1.2590577777777778,811.2787567219979,810.7400076881534,0.12395749664780685,0.2713269891436708,0.2226730108563292,0.3547195639344208,2121.3436559128245,4463.691129793168
1.2613722222222221,811.4376306428798,810.8931894869233,0.12433815248721626,0.2714647109778567,0.2225352890221433,0.3547195639344209,2121.1021134688976,4466.707317644155
1.2636866666666666,811.5972367533507,811.0473280030988,0.12471952887835205,0.2716026935087011,0.22239730649129888,0.354719563934421,2120.8601138040194,4469.721028415564
1.2660011111111111,811.7575547416229,811.2023980651129,0.12510162791059393,0.2717409374921446,0.22225906250785535,0.35471956393442106,2120.6176555923894,4472.73227162144
1.2683155555555556,811.9185647538952,811.3583745294459,0.12548445163250588,0.27187944366936073,0.22212055633063923,0.35471956393442117,2120.3747375341054,4475.7410566214
1.2706300000000001,812.0802474327684,811.515232384839,0.1258680020509487,0.27201821276643456,0.22198178723356546,0.3547195639344212,2120.1313583557276,4478.747392624255
1.2729444444444444,812.2425839496063,811.6729468468228,0.12625228113027312,0.27215724549407094,0.22184275450592902,0.35471956393442133,2119.8875168107934,4481.751288691788
1.275258888888889,812.4055560311857,811.8314934426662,0.12663729079157535,0.27229654254732544,0.2217034574526746,0.35471956393442144,2119.6432116802825,4484.752753742709
1.2775733333333334,812.5691459810026,811.9908480869541,0.1270230329119928,0.27243610460534895,0.22156389539465113,0.3547195639344215,2119.398441773073,4487.751796556703
1.279887777777778,812.7333366956075,812.1509871480904,0.12740950932402093,0.27257593233114097,0.22142406766885903,0.3547195639344216,2119.1532059263664,4490.748425778598
1.2822022222222225,812.8981116763531,812.3118875060924,0.12779672181482968,0.2727160263713024,0.2212839736286977,0.3547195639344217,2118.907503006127,4493.742649922571
1.2845166666666668,813.063455036936,812.4735266020961,0.1281846721255576,0.2728563873557794,0.22114361264422067,0.3547195639344218,2118.661331907528,4496.734477376377
1.286831111111111,813.2293515071063,812.6358824800304,0.12857336195056268,0.27299701589759323,0.22100298410240676,0.3547195639344219,2118.414691555427,4499.723916405616
1.2891455555555555,813.3957864329125,812.7989338209557,0.12896279293660753,0.27313791259254516,0.22086208740745492,0.354719563934422,2118.1675809048825,4502.710975157958
1.29146,813.5627457738367,812.9626599705649,0.1293529666819566,0.27327907801888934,0.22072092198111068,0.3547195639344221,2117.9199989417266,4505.695661667352
1.2949316666666668,813.8141388438203,813.2094709718659,0.12993962334773992,0.2734913312505077,0.2205086687494923,0.3547195639344222,2117.5477401448584,4510.168260781512
1.2984033333333334,814.0666389485698,813.4576911031836,0.130527959706721,0.27370419219755854,0.22029580780244148,0.3547195639344224,2117.17441551067,4514.635566458184
1.301875,814.3202062247395,813.7072595520104,0.13111798050391082,0.27391766257679373,0.22008233742320635,0.35471956393442255,2116.800022028247,4519.097604497577
1.3053466666666667,814.5748036611883,813.9581191342733,0.13170969020485523,0.2741317440038541,0.21986825599614596,0.35471956393442267,2116.424556864011,4523.554400225301
1.3088183333333334,814.8303969827898,814.2102162663359,0.13230309298040688,0.27434643798776026,0.21965356201223976,0.35471956393442283,2116.048017371376,4528.005978520364
1.31229,815.0869545224385,814.4635009002158,0.13289819268831407,0.2745617459242512,0.21943825407574882,0.354719563934423,2115.670401102436,4532.452363841845
1.3192333333333333,815.6028478070084,814.9734495784068,0.13409349662888273,0.2749942086216845,0.21900579137831555,0.3547195639344233,2114.9119295248324,4541.329651450278
1.3261766666666666,816.1222770135133,815.4876313116868,0.13529562567333112,0.27542914065158947,0.2185708593484105,0.3547195639344236,2114.149127126314,4550.186451250177
1.33312,816.6450682110728,816.0057606780783,0.1365045965337388,0.27586654806042094,0.21813345193957911,0.35471956393442394,2113.3819833023485,4559.0229461879235
1.3400633333333336,817.1710753293011,816.5275954000564,0.13772041745982871,0.2763064338329404,0.21769356616705962,0.3547195639344243,2112.6104928181335,4567.839314556471
1.347006666666667,817.7001755520197,817.0529307658372,0.1389430861623157,0.2767487971408813,0.21725120285911872,0.3547195639344246,2111.834657126318,4576.635730503241
1.3539500000000002,818.2322648611063,817.5815939999002,0.14017258702334437,0.27719363233368083,0.21680636766631914,0.354719563934425,2111.0544861371013,4585.412364451102
1.3608933333333333,818.7672537237268,818.1134387258297,0.14140888738023416,0.27764092759393394,0.21635907240606603,0.35471956393442533,2110.2700005763536,4594.169383436791
1.3678366666666668,819.3050628658118,818.648339573404,0.14265193260460646,0.27809066315701414,0.21590933684298594,0.3547195639344257,2109.4812351081227,4602.906951370416
1.3747800000000001,819.8456190305108,819.1861869074253,0.14390163961644592,0.2785428089644513,0.21545719103554872,0.3547195639344261,2108.6882424502387,4611.625229218255
1.3817233333333334,820.3888505788501,819.7268815934148,0.1451578883682053,0.2789973215828691,0.21500267841713092,0.3547195639344265,2107.8910987780155,4620.324375108927
1.3886666666666667,820.9346827478433,820.270329660366,0.14642051070458909,0.27945414017343795,0.21454585982656207,0.3547195639344269,2107.0899107931937,4629.004544360205
1.39561,821.4830323364563,820.8164366693156,0.14768927584786642,0.27991318124044046,0.21408681875955957,0.3547195639344273,2106.284824934135,4637.665889420307
1.4025533333333335,822.0338015411202,821.3651015456819,0.14896387157947083,0.28037433182274696,0.21362566817725306,0.3547195639344277,2105.476039316901,4646.308559713304
1.406025,822.3100571653619,821.6403580815178,0.14960323025046562,0.28060565271620447,0.21339434728379547,0.35471956393442794,2105.070338839069,4650.622937627084
1.4094966666666668,822.5868706109451,821.9162095771353,0.15024388001074457,0.2808374407276356,0.21316255927236438,0.3547195639344281,2104.6638191097536,4654.93270137261
1.4129683333333336,822.8642220204844,822.1926382249378,0.15088574703467453,0.28106966914681913,0.21293033085318078,0.35471956393442833,2104.256526974483,4659.237868637452
1.4164400000000001,823.1420889477038,822.4696242624184,0.15152874658864418,0.28130230731701195,0.21269769268298813,0.35471956393442855,2103.8485162003653,4663.538456845396
1.4199116666666667,823.4204459649876,822.7471456256837,0.15217278159791905,0.28153532011643423,0.21246467988356582,0.35471956393442877,2103.43984838548,4667.834483134831
1.4233833333333334,823.6992642306682,823.0251775693761,0.15281774105589246,0.281768667382735,0.21223133261726504,0.354719563934429,2103.0305939682767,4672.125964333839
1.4268550000000002,823.9785110135896,823.3036922502023,0.15346349826897315,0.2820023032779893,0.2119976967220107,0.3547195639344292,2102.620833341268,4676.412916931677
1.4303266666666667,824.2581491732876,823.5826582717748,0.1541099089339689,0.2822361755930932,0.2117638244069068,0.3547195639344295,2102.2106580710133,4680.695357046328
1.4337983333333335,824.5381365953011,823.8620401892244,0.15475680905006162,0.2824702249923131,0.21152977500768685,0.3547195639344297,2101.8001722230624,4684.973300387772
1.4372700000000003,824.8184255827948,824.14179797317,0.1554040126747177,0.28270438420137095,0.21129561579862904,0.35471956393442994,2101.38949378592,4689.246762216652
1.4407416666666668,825.0989622079368,824.4218864342043,0.1560513095425631,0.2829385771459498,0.21106142285405025,0.35471956393443016,2100.9787561819776,4693.515757298027
1.4442133333333336,825.3796856294261,824.702254611151,0.15669846257878342,0.2831727180520383,0.21082728194796171,0.35471956393443044,2100.5681098453656,4697.780299849946
1.4476850000000003,825.6605273863346,824.9828451290999,0.15734520535434418,0.2834067105252257,0.21059328947477424,0.35471956393443066,2100.157723836725,4702.040403486644
1.4511566666666669,825.9414106830613,825.2635935366718,0.1579912395494784,0.28364044663298826,0.21035955336701168,0.35471956393443094,2099.7477874527326,4706.296081156282
1.4546283333333334,826.2222496857289,825.544427636176,0.15863623251441336,0.2838738060221562,0.2101261939778437,0.35471956393443116,2099.338511773926,4710.547345073284
1.4581000000000002,826.5029488567012,825.8252668252975,0.1592798150417578,0.28410665511296057,0.20989334488703945,0.35471956393443144,2098.9301310782175,4714.794206645508
1.4604144444444445,826.6899521280174,826.0124519061308,0.1597078868072727,0.28426153209790667,0.2097384679020933,0.3547195639344316,2098.658501197065,4717.623007182256
1.462728888888889,826.8768124317809,826.1995707081552,0.16013502078983005,0.28441606979162015,0.20958393020837982,0.35471956393443177,2098.3874663793904,4720.449858701677
1.4650433333333335,827.0634935844548,826.386592370419,0.16056107844442657,0.284570218068318,0.20942978193168196,0.35471956393443194,2098.1171145379353,4723.274763885333
1.467357777777778,827.2499571935216,826.5734840224061,0.16098591322082115,0.2847239239059107,0.20927607609408927,0.3547195639344321,2097.847538665108,4726.097725201907
1.4696722222222225,827.4361626479171,826.7602107463817,0.16140937062220867,0.2848771314072304,0.20912286859276957,0.35471956393443227,2097.5788367957534,4728.918744895948
1.4719866666666668,827.6220671322052,826.9467355565124,0.1618312883649486,0.28502978185782074,0.20897021814217928,0.3547195639344325,2097.311111905796,4731.737824976697
1.4743011111111113,827.8076256678595,827.1330193976386,0.16225149665210803,0.2851818138249054,0.20881818617509462,0.35471956393443266,2097.0444717386663,4734.554967207114
1.4766155555555558,827.9927911849072,827.319021166598,0.16266981857274665,0.2853331633018499,0.20866683669815012,0.3547195639344328,2096.7790285519395,4737.370173093279
1.47893,828.1775146269176,827.5046977589185,0.16308607063740874,0.2854837639019033,0.20851623609809675,0.354719563934433,2096.514898777537,4740.1834438743135
1.4812444444444444,828.3617450918966,827.6900041435033,0.1635000634581322,0.28563354710422656,0.20836645289577344,0.3547195639344332,2096.252202590238,4742.99478051305
1.4835588888888889,828.5454300110383,827.8748934676062,0.163911602578391,0.2857824425541668,0.2082175574458332,0.3547195639344334,2095.991063381043,4745.804183687598
1.4858733333333334,828.7285153664945,828.059317193929,0.16432048945475183,0.2859303784184222,0.2080696215815777,0.35471956393443355,2095.7316071342693,4748.611653784053
1.4881877777777777,828.9109459483615,828.2432252710655,0.16472652258770634,0.28607728179417885,0.20792271820582117,0.35471956393443377,2095.4739617099895,4751.417190890528
1.4905022222222222,829.0926656499524,828.4265663377602,0.1651294987942252,0.28622307916952217,0.20777692083047777,0.35471956393443393,2095.218256036544,4754.220794792732
1.4928166666666667,829.2736177991783,828.609287960574,0.1655292146092583,0.2863676969305024,0.2076323030694976,0.35471956393443416,2094.964619221228,4757.022464971263
1.4951311111111112,829.453745522521,828.791336903577,0.1659254677978878,0.28651106190823317,0.20748893809176683,0.3547195639344343,2094.713179590763,4759.822200600821
1.4974455555555557,829.632992136751,828.9726594276341,0.166318058954424,0.28665310195744714,0.2073468980425529,0.35471956393443455,2094.4640636766057,4762.620000551478
1.4997600000000002,829.8113015622348,829.1532016157951,0.1667067931597288,0.2867937465561176,0.20720625344388235,0.3547195639344347,2094.2173951633026,4765.41586339212
1.5020744444444447,829.9886187505329,829.3329097202623,0.16709148166380633,0.28693292741422277,0.2070670725857772,0.35471956393443493,2093.973293820815,4768.2097873961675
1.5043888888888892,830.164890118031,829.5117305254767,0.16747194355752065,0.2870705790785751,0.20692942092142488,0.3547195639344351,2093.7318744437434,4771.001770549601
1.5090177777777782,830.5140909536484,829.8665022720218,0.16821951275440275,0.28734105069707205,0.20665894930292794,0.3547195639344355,2093.2575097496424,4776.57990487491
1.513646666666667,830.8585206892657,830.2171159730094,0.16894826947396785,0.2876047159340206,0.20639528406597943,0.35471956393443593,2092.795082378647,4782.150244955145
1.5182755555555556,831.1978449040856,830.5632027995898,0.16965719964042708,0.287861207895331,0.20613879210466907,0.3547195639344363,2092.3452358053073,4787.712765661419
1.5229044444444446,831.5317878631502,830.9044364148971,0.17034553687379,0.28811024930361245,0.2058897506963876,0.35471956393443677,2091.9084563305714,4793.267438762455
1.525218888888889,831.6966729467634,831.0731450465373,0.17068181571730764,0.288231915476392,0.2057680845236081,0.354719563934437,2091.6950729924088,4796.041822960865
1.5275333333333334,831.860139115967,831.2405414609567,0.17101277890426275,0.28835165843692584,0.20564834156307416,0.35471956393443715,2091.485062666149,4798.814233620605
1.529847777777778,832.0221707743391,831.4066001848876,0.17133840519343194,0.2884694705001088,0.20553052949989115,0.3547195639344374,2091.278438830259,4801.584666657227
1.5321622222222224,832.182756603119,831.5712995276659,0.17165868930013004,0.28858534975393413,0.2054146502460659,0.3547195639344376,2091.0752048380973,4804.353117929005
1.5367911111111112,832.4995663250414,831.8965523859172,0.17228328552106997,0.288811329571574,0.20518867042842598,0.35471956393443804,2090.6788717675013,4809.884058460767
1.54142,832.8105589780607,832.216202464566,0.1728868159341811,0.28902968774942167,0.20497031225057832,0.3547195639344385,2090.2959058547935,4815.407021789988
1.5460488888888888,833.1157842125634,832.5302108655818,0.1734697290799282,0.28924058657006707,0.2047594134299329,0.35471956393443893,2089.926022481825,4820.92197495166
1.5506777777777778,833.4153432760662,832.8385933798685,0.17403263865439667,0.2894442480696431,0.20455575193035688,0.3547195639344394,2089.568832232129,4826.428886028128
1.5553066666666666,833.7093807904386,833.1414150262177,0.1745762874061501,0.289640940975656,0.20435905902434398,0.3547195639344399,2089.223863799909,4831.92772464522
1.5599355555555556,833.998076316935,833.4387836604557,0.17510151246640362,0.2898309681633924,0.2041690318366077,0.3547195639344403,2088.8905859895326,4837.418462374449
1.5645644444444446,834.2816362181786,833.7308431497698,0.17560921386927408,0.2900146552664994,0.20398534473350055,0.3547195639344408,2088.5684276907796,4842.901073042999
1.5668788888888892,834.421560265802,833.8749350777863,0.17585678485701728,0.2901042268085413,0.2038957731914587,0.35471956393444104,2088.4113332888714,4845.639323224122
1.5691933333333334,834.5602861695837,834.0177665197174,0.17610032728543054,0.2901923408119811,0.20380765918801894,0.35471956393444126,2088.256795180511,4848.375532957854
1.5726650000000002,834.7661945592707,834.2297054845012,0.17645834718682782,0.2903218729309993,0.20367812706900065,0.35471956393444165,2088.0296162093637,4852.4760161876275
1.5761366666666667,834.9695784188834,834.438953995228,0.17680796905697777,0.2904483666301454,0.20355163336985463,0.354719563934442,2087.8077661489597,4856.571894823288
1.5796083333333333,835.1705421792254,834.6456048754716,0.1771495867580482,0.29057196440932215,0.20342803559067785,0.3547195639344424,2087.590995076872,4860.663161840559
1.58308,835.3691903453708,834.8497536903484,0.17748358629613423,0.29069280592609414,0.20330719407390588,0.35471956393444276,2087.37905805569,4864.749811079364
1.5865516666666668,835.5656266733424,835.0514976966971,0.1778103437017543,0.2908110272288476,0.2031889727711524,0.3547195639344431,2087.171716477935,4868.831837235635
1.5900233333333333,835.7599534893384,835.2509349211972,0.17813022343691595,0.290926760180465,0.20307323981953498,0.3547195639344435,2086.968739076844,4872.90923584729
1.593495,835.9522711373907,835.4481633621492,0.17844357725192006,0.2910401320447147,0.20295986795528528,0.35471956393444387,2086.7699026517744,4876.982003275473
1.5969666666666669,836.1426775409938,835.64328030822,0.1787507434199807,0.29115126520933576,0.20284873479066426,0.35471956393444426,2086.574992553876,4881.050136682062
1.5992811111111114,836.2686004572773,835.7722326975676,0.1789522440341234,0.291224168423463,0.20277583157653703,0.35471956393444454,2086.4471317784614,4883.759650113604
1.6015955555555557,836.3937437503879,835.9003173803078,0.17915123164138372,0.29129616242805934,0.2027038375719407,0.3547195639344448,2086.3208656136144,4886.467102622497
1.60391,836.5181342606422,836.0275619854423,0.17934779605915332,0.29136727971918724,0.20263272028081275,0.35471956393444504,2086.1961370663503,4889.17249392738
1.6062244444444442,836.6417981882449,836.1539936964191,0.17954202431982502,0.29143755178529257,0.2025624482147074,0.3547195639344453,2086.072890910886,4891.87582388698
1.6085388888888887,836.7647610793772,836.2796392129418,0.17973400069600354,0.29150700911632577,0.20249299088367426,0.3547195639344456,2085.9510736726415,4894.577092496156
1.6108533333333332,836.8870478168508,836.4045247189647,0.17992380673643674,0.29157568121674193,0.20242431878325806,0.35471956393444587,2085.8306336054425,4897.2762998819035
1.6131677777777778,837.0086826147865,836.5286758563389,0.18011152131081498,0.29164359662170936,0.20235640337829058,0.35471956393444615,2085.711520663089,4899.973446299349
1.6154822222222223,837.1296890168288,836.6521177036012,0.18029722066183435,0.291710782915946,0.20228921708405403,0.35471956393444637,2085.593686466323,4902.668532127739
1.6177966666666665,837.2500898974322,836.7748747594167,0.18048097846304637,0.29177726675464943,0.20222273324535064,0.35471956393444665,2085.47708426612,4905.3615578664485
1.620111111111111,837.3699074658183,836.8969709302155,0.1806628658812707,0.29184307388607805,0.20215692611392197,0.3547195639344469,2085.361668904082,4908.052524131028
1.6224255555555556,837.4891632722295,837.0184295215931,0.1808429516424851,0.2919082291753903,0.20209177082460972,0.3547195639344472,2085.24739677063,4910.741431649288
1.62474,837.6078782161419,837.13927323307,0.1810213021002395,0.2919727566293966,0.20202724337060338,0.3547195639344475,2085.134225761594,4913.428281257455
1.6270544444444446,837.7260725561395,837.2595241558356,0.18119798130581108,0.292036679421942,0.20196332057805805,0.35471956393444776,2085.0221152336926,4916.113073896379
1.629368888888889,837.8437659211728,837.3792037731262,0.18137305107936944,0.2921000199196532,0.20189998008034682,0.35471956393444803,2084.911025959379,4918.795810607823
1.6316833333333336,837.960977322969,837.4983329629204,0.18154657108160951,0.2921627997078561,0.20183720029214386,0.3547195639344483,2084.800920081387,4921.476492530826
1.6339977777777779,838.0777251693742,837.6169320026555,0.18171859888533587,0.292225039616475,0.20177496038352502,0.3547195639344486,2084.691761067302,4924.155120898162
1.6363122222222224,838.1940272784332,837.7350205756924,0.18188919004656218,0.2922867597457559,0.20171324025424406,0.35471956393444887,2084.583513664454,4926.831697032876
1.638626666666667,838.3099008930529,837.8526177792908,0.18205839817484568,0.2923479794917144,0.20165202050828554,0.3547195639344492,2084.4761438552814,4929.506222344912
1.6409411111111114,838.4253626960871,837.9697421338668,0.18222627500251298,0.2924087175711813,0.20159128242881874,0.3547195639344495,2084.3696188134054,4932.178698327841
1.643255555555556,838.5404288257133,838.0864115933282,0.18239287045254418,0.2924689920463629,0.2015310079536371,0.35471956393444976,2084.2639068605554,4934.849126555683
1.6455700000000002,838.6551148910041,838.2026435563134,0.18255823270500993,0.29252882034887867,0.20147117965112127,0.35471956393445003,2084.1589774244126,4937.517508679818
1.6478844444444445,838.7694359875741,838.3184548781641,0.1827224082618185,0.29258821930318646,0.20141178069681356,0.3547195639344503,2084.054800997522,4940.183846425997
1.6501988888888888,838.8834067132334,838.4338618834882,0.18288544200974455,0.29264720514938636,0.2013527948506137,0.35471956393445064,2083.9513490973027,4942.848141591441
1.6525133333333333,838.997041183562,838.54888037918,0.18304737728159345,0.29270579356535,0.20129420643464999,0.3547195639344509,2083.8485942272314,4945.510396042056
1.6548277777777778,839.1103530473514,838.6635256677819,0.18320825591549603,0.2927639996881739,0.20123600031182612,0.3547195639344512,2083.7465098392217,4948.170611709707
1.6571422222222223,839.22335550186,838.7778125610897,0.18336811831229294,0.29282183813494056,0.20117816186505938,0.35471956393445153,2083.6450702972083,4950.828790589618
1.6586851851851854,839.2985248966071,838.85381181293,0.18347414799118505,0.29286019982637757,0.20113980017362246,0.3547195639344517,2083.577789921822,4952.599779307047
1.6602281481481482,839.373566132457,838.929662290937,0.18357975460926557,0.29289840845379994,0.20110159154620005,0.3547195639344519,2083.510777996652,4954.369864321792
1.6617711111111113,839.4484828042359,839.0053680378554,0.18368494914205366,0.2929364679881665,0.20106353201183347,0.3547195639344521,2083.4440275572606,4956.139046268789
1.6633140740740744,839.5232784272522,839.0809330085747,0.18378974231618933,0.29297438231039113,0.20102561768960886,0.3547195639344523,2083.3775317971363,4957.907325793889
1.6648570370370372,839.5979564391533,839.156361071944,0.1838941446159609,0.2930121552137046,0.20098784478629547,0.35471956393445253,2083.311284063546,4959.6747035535645
1.6664,839.6725202017443,839.2316560125698,0.18399816628961072,0.29304979040593565,0.20095020959406432,0.3547195639344527,2083.2452778535444,4961.441180214621
1.667942962962963,839.746973002782,839.3068215326058,0.18410181735552955,0.2930872915117528,0.20091270848824722,0.3547195639344529,2083.17950681003,4963.206756453912
1.669485925925926,839.8213180577335,839.3818612535258,0.1842051076082602,0.2931246620748357,0.20087533792516435,0.35471956393445314,2083.113964717947,4964.971432958063
1.6710288888888891,839.895558511499,839.4567787178778,0.1843080466243352,0.29316190555998767,0.2008380944400123,0.3547195639344533,2083.0486455005753,4966.735210423205
1.672571851851852,839.9696974401093,839.531577391022,0.18441064376799393,0.29319902535520426,0.20080097464479582,0.35471956393445353,2082.9835432159034,4968.498089554715
1.6741148148148148,840.0437378523828,839.6062606628461,0.18451290819671376,0.2932360247736738,0.20076397522632625,0.35471956393445375,2082.9186520531193,4970.260071066956
1.6756577777777777,840.1176826915516,839.6808318494581,0.18461484886660703,0.29327290705573084,0.20072709294426913,0.354719563934454,2082.8539663291863,4972.021155683029
1.6772007407407408,840.1915348368572,839.7552941948578,0.18471647453768292,0.2933096753707594,0.20069032462924058,0.35471956393445414,2082.7894804855027,4973.781344134535
1.6787437037037038,840.2652971051021,839.8296508725787,0.18481779377892565,0.29334633281903044,0.20065366718096958,0.35471956393445436,2082.7251890846815,4975.540637161333
1.6802866666666667,840.3389722521815,839.90390498731,0.18491881497328788,0.29338288243350824,0.20061711756649178,0.3547195639344546,2082.6610868073785,4977.29903551131
1.6818296296296296,840.41256297457,839.9780595764882,0.18501954632250556,0.29341932718159286,0.2005806728184072,0.3547195639344548,2082.597168449242,4979.056539940161
1.6833725925925924,840.4860719107805,840.0521176118622,0.1851199958517929,0.2934556699668183,0.20054433003318167,0.354719563934455,2082.5334289179295,4980.813151211165
1.6849155555555555,840.559501642788,840.1260820010309,0.18522017141441044,0.29349191363050575,0.20050808636949424,0.3547195639344552,2082.46986323021,4982.568870094974
1.6864585185185186,840.6328546974197,840.1999555889523,0.18532008069609493,0.29352806095336587,0.20047193904663413,0.3547195639344554,2082.406466509155,4984.323697369406
1.6880014814814814,840.7061335477158,840.2737411594247,0.18541973121938207,0.2935641146570629,0.2004358853429371,0.35471956393445564,2082.343233981393,4986.077633819236
1.6895444444444445,840.7793406142506,840.3474414365359,0.18551913034777587,0.2936000774057233,0.2003999225942767,0.35471956393445586,2082.2801609744643,4987.830680236012
1.6910874074074076,840.8524782664318,840.4210590860872,0.18561828528984298,0.293635951807417,0.20036404819258302,0.3547195639344561,2082.217242914225,4989.5828374178445
1.6926303703703705,840.9255488237628,840.4945967169884,0.18571720310317524,0.2936717404155908,0.2003282595844092,0.3547195639344563,2082.154475322331,4991.3341061692345
1.6941733333333335,840.9985545570696,840.5680568826173,0.18581589069820514,0.29370744573044927,0.2002925542695507,0.35471956393445647,2082.091853813816,4993.084487300884
1.6957162962962966,841.0714976897069,840.6414420821582,0.18591435484197275,0.29374307020031737,0.20025692979968265,0.3547195639344567,2082.0293740947036,4994.8339816295165
1.6972592592592595,841.1443803987283,840.7147547619055,0.18601260216174925,0.2937786162229513,0.20022138377704868,0.3547195639344569,2081.967031959706,4996.582589977709
1.6988022222222223,841.2172048160259,840.7879973165416,0.18611063914855558,0.2938140861468119,0.20018591385318807,0.35471956393445714,2081.9048232899922,4998.33031317372
1.7003451851851852,841.2899730294433,840.8611720903828,0.18620847216059755,0.2938494822723073,0.2001505177276927,0.35471956393445736,2081.8427440510086,5000.07715205132
1.7018881481481483,841.3626870838659,840.9342813786025,0.18630610742661372,0.29388480685300405,0.200115193146996,0.3547195639344576,2081.7807902903523,5001.82310744964
1.7034311111111113,841.4353489822699,841.0073274284189,0.1864035510490873,0.2939200620967894,0.20007993790321063,0.3547195639344578,2081.7189581357375,5003.568180213011
1.7049740740740742,841.5079606867546,841.0803124402593,0.18650080900739818,0.2939552501670117,0.20004474983298828,0.354719563934458,2081.6572437929913,5005.312371190808
1.7065170370370373,841.5805241195465,841.1532385688968,0.18659788716088765,0.29399037318358917,0.20000962681641085,0.35471956393445825,2081.59564354411,5007.05568123731
1.7080600000000001,841.653041163977,841.2261079245596,0.18669479125183475,0.29402543322408653,0.19997456677591344,0.35471956393445847,2081.5341537453714,5008.798111211545
1.709602962962963,841.7255136654312,841.2989225740112,0.18679152690832318,0.2940604323247528,0.1999395676752472,0.3547195639344587,2081.4727708255155,5010.539661977159
1.711145925925926,841.7979434322726,841.3716845416054,0.18688809964704967,0.2940953724815368,0.19990462751846325,0.3547195639344589,2081.4114912839623,5012.280334402272
1.712688888888889,841.8703322367509,841.4443958103195,0.18698451487606454,0.2941302556510788,0.19986974434892116,0.35471956393445914,2081.3503116890706,5014.020129359346
1.7142318518518518,841.9426818158755,841.5170583227547,0.18708077789740687,0.29416508375166445,0.1998349162483355,0.35471956393445936,2081.289228676471,5015.759047725055
1.7157748148148146,842.0149938722727,841.5896739821177,0.18717689390968367,0.2941998586641572,0.19980014133584278,0.3547195639344596,2081.2282389474235,5017.497090380157
1.7173177777777777,842.0872700750176,841.6622446531743,0.18727286801057205,0.29423458223290405,0.19976541776709594,0.3547195639344598,2081.1673392672346,5019.234258209371
1.7188607407407408,842.159512060443,841.734772163179,0.18736870519924212,0.294269256266612,0.19973074373338803,0.35471956393446,2081.1065264637155,5020.970552101255
1.7204037037037037,842.2317214329333,841.8072583027856,0.18746441037874728,0.2943038825392127,0.1996961174607873,0.3547195639344603,2081.0457974256688,5022.70597294809
1.7219466666666667,842.3038997656867,841.8797048269273,0.18755998835829207,0.29433846279068354,0.19966153720931648,0.3547195639344605,2080.9851491014483,5024.4405216457635
1.7234896296296298,842.3760486014633,841.952113455679,0.18765544385547406,0.294372998727858,0.199627001272142,0.35471956393446075,2080.9245784975365,5026.174199093657
1.7250325925925927,842.4481694533157,842.024485875097,0.18775078149846677,0.2944074920252161,0.19959250797478395,0.35471956393446097,2080.8640826771584,5027.907006194539
1.7265755555555558,842.5202638052956,842.0968237380368,0.18784600582812513,0.29444194432564563,0.1995580556743544,0.3547195639344612,2080.8036587589477,5029.6389438544575
1.7281185185185188,842.592333113144,842.1691286649501,0.1879411213000445,0.2944763572411875,0.19952364275881254,0.3547195639344614,2080.7433039156376,5031.370012982637
1.7296614814814817,842.6643788049598,842.2414022446584,0.18803613228654653,0.29451073235375397,0.19948926764624603,0.3547195639344617,2080.683015372803,5033.100214491376
1.7312044444444445,842.7364022818529,842.3136460351094,0.188131043078623,0.2945450712158321,0.19945492878416787,0.3547195639344619,2080.6227904076245,5034.82954929595
1.7327474074074074,842.8084049185823,842.3858615641145,0.18822585788783436,0.2945793753511707,0.1994206246488294,0.35471956393446213,2080.562626347688,5036.55801831451
1.7342903703703705,842.8803880641736,842.4580503300643,0.18832058084814393,0.2946136462554434,0.1993863537445566,0.35471956393446236,2080.502520569816,5038.285622468002
1.7358333333333336,842.9523530425191,842.5302138026258,0.18841521601769662,0.2946478853968931,0.19935211460310684,0.35471956393446263,2080.4424704989424,5040.01236268006
1.7373762962962964,843.0243011529662,842.6023534234231,0.18850976738056402,0.2946820942169627,0.1993179057830373,0.35471956393446286,2080.3824736070014,5041.738239876924
1.7389192592592595,843.0962336708884,842.6744706067002,0.18860423884844507,0.29471627413091045,0.19928372586908952,0.3547195639344631,2080.3225274118536,5043.463254987359
1.7404622222222226,843.1681518482371,842.7465667399628,0.18869863426229017,0.29475042652839784,0.19924957347160216,0.3547195639344633,2080.2626294762513,5045.187408942551
1.7420051851851854,843.2400569140859,842.8186431846083,0.18879295739392116,0.29478455277407545,0.19921544722592455,0.3547195639344636,2080.202777406812,5046.910702676049
1.7435481481481483,843.3119500751546,842.890701276536,0.18888721194758365,0.2948186542081447,0.19918134579185534,0.3547195639344638,2080.142968853032,5048.633137123667
1.7450911111111111,843.383832516324,842.9627423267422,0.18898140156146798,0.2948527321469081,0.19914726785309192,0.354719563934464,2080.0832015063243,5050.354713223412
1.7466340740740742,843.4557054011308,843.0347676218998,0.1890755298091787,0.29488678788330097,0.19911321211669902,0.3547195639344643,2080.023473099084,5052.075431915404
1.7481770370370373,843.5275698722569,843.1067784249218,0.18916960020117743,0.29492082268741343,0.19907917731258656,0.3547195639344645,2079.963781403773,5053.795294141803
1.7497200000000002,843.5994270519999,843.1787759755116,0.18926361618618046,0.29495483780699605,0.19904516219300397,0.35471956393446474,2079.904124232032,5055.514300846734
1.7512629629629632,843.6712780427341,843.2507614906968,0.18935758115251888,0.2949888344679518,0.19901116553204815,0.354719563934465,2079.84449943382,5057.232452976219
1.7528059259259259,843.74312392736,843.3227361653511,0.18945149842947237,0.2950228138748192,0.1989771861251809,0.35471956393446524,2079.7849048965672,5058.949751478104
1.754348888888889,843.8149657697404,843.394701172702,0.18954537128856316,0.29505677721123935,0.19894322278876067,0.3547195639344655,2079.7253385443514,5060.666197301995
1.755891851851852,843.8868046151232,843.466657664823,0.18963920294479636,0.29509072564040595,0.19890927435959407,0.35471956393446574,2079.6657983371147,5062.381791399183
1.757434814814815,843.95864149056,843.5386067731163,0.1897329965579125,0.2951246603055177,0.19887533969448232,0.354719563934466,2079.606282269866,5064.09653472259
1.758977777777778,844.0304774053063,843.6105496087808,0.18982675523356246,0.2951585823302036,0.19884141766979643,0.35471956393446624,2079.5467883719375,5065.810428226697
1.760520740740741,844.1023133512156,843.6824872632686,0.18992048202447998,0.29519249281894705,0.19880750718105294,0.3547195639344665,2079.4873147062376,5067.52347286749
1.762063703703704,844.1741503031215,843.7544208087293,0.19001417993161168,0.2952263928574949,0.19877360714250505,0.35471956393446674,2079.427859368538,5069.2356696023935
1.7636066666666668,844.2459892192119,843.826351298442,0.190107851905224,0.29526028351325795,0.19873971648674202,0.354719563934467,2079.3684204867677,5070.947019390212
1.7651496296296296,844.3178310413903,843.8982797672383,0.19020150084597548,0.2952941658356986,0.19870583416430143,0.35471956393446724,2079.308996220335,5072.657523191076
1.7666925925925927,844.3896766956323,843.9702072319125,0.1902951296059754,0.29532804085671405,0.19867195914328595,0.3547195639344675,2079.249584759454,5074.367181966386
1.7682355555555558,844.4615270923297,844.042134691622,0.19038874098980224,0.29536190959100495,0.1986380904089951,0.35471956393446774,2079.1901843245,5076.075996678755
1.7697785185185186,844.5333831266257,844.1140631282768,0.19048233775549792,0.2953957730364347,0.19860422696356528,0.354719563934468,2079.1307931653755,5077.783968291952
1.7713214814814815,844.6052456787469,844.1859935069203,0.1905759226155544,0.29542963217438706,0.19857036782561294,0.3547195639344683,2079.07140956089,5079.491097770859
1.7728644444444444,844.6771156143171,844.2579267760981,0.19066949823784565,0.2954634879701025,0.19853651202989747,0.3547195639344685,2079.0120318181625,5081.197386081411
1.7744074074074074,844.7489937846742,844.3298638682206,0.19076306724656833,0.2954973413730193,0.1985026586269807,0.3547195639344688,2078.9526582720273,5082.902834190555
1.7759503703703705,844.8208810271711,844.4018056999129,0.1908566322231368,0.2955311933170969,0.19846880668290315,0.354719563934469,2078.893287284467,5084.607443066191
1.7774933333333334,844.8927781654745,844.4737531723591,0.19095019570707508,0.2955650447211387,0.19843495527886135,0.3547195639344693,2078.833917244045,5086.31121367713
1.7790362962962962,844.9646860098538,844.545707171637,0.19104376019687483,0.29559889648910254,0.19840110351089746,0.3547195639344696,2078.7745465653597,5088.014146993048
1.780579259259259,845.0366053574646,844.6176685690432,0.19113732815084075,0.2956327495104068,0.19836725048959317,0.3547195639344698,2078.7151736885135,5089.7162439844415
1.7821222222222222,845.1085369926258,844.689638221413,0.19123090198792458,0.2956666046602317,0.19833339533976835,0.3547195639344701,2078.6557970785766,5091.417505622582
1.7836651851851852,845.1804816870916,844.7616169714319,0.19132448408853597,0.2957004627998128,0.19829953720018728,0.35471956393447035,2078.596415225077,5093.11793287947
1.785208148148148,845.2524402003154,844.8336056479387,0.19141807679533623,0.29573432477672834,0.19826567522327168,0.3547195639344706,2078.537026641496,5094.817526727792
1.7867511111111112,845.324413279713,844.9056050662255,0.19151168241403427,0.29576819142518723,0.1982318085748128,0.35471956393447085,2078.477629864763,5096.51628814089
1.7882940740740743,845.396401660927,844.9776160283316,0.1916053032141973,0.29580206356632216,0.19819793643367783,0.3547195639344711,2078.4182234547397,5098.214218092707
1.7898370370370371,845.4684060680759,845.0496393233302,0.19169894143000737,0.2958359420084634,0.19816405799153658,0.3547195639344714,2078.358805993742,5099.911317557758
1.7913800000000002,845.540427214021,845.1216757276176,0.1917925992610973,0.29586982754744134,0.19813017245255868,0.3547195639344717,2078.2993760860077,5101.6075875110855
1.7929229629629633,845.6124658006228,845.1937260051963,0.1918862788733582,0.2959037209668785,0.1980962790331215,0.35471956393447196,2078.2399323571885,5103.303028928226
1.7944659259259261,845.6845225190183,845.2657909079651,0.1919799823998384,0.29593762303851484,0.1980623769614852,0.3547195639344722,2078.180473453771,5104.997642785169
1.7960088888888892,845.7565980499038,845.3378711760123,0.19207371194168413,0.2959715345225481,0.19802846547745193,0.35471956393447246,2078.1209980424896,5106.691430058328
1.7975518518518523,845.8286930638458,845.4099675379223,0.19216746956920358,0.2960054561680188,0.19799454383198123,0.35471956393447274,2078.0615048096442,5108.3843917245
1.7990948148148151,845.900808221626,845.4820807111003,0.19226125732309637,0.296039388713255,0.197960611286745,0.354719563934473,2078.0019924603243,5110.076528760837
1.8006377777777782,845.9729441746432,845.5542114021293,0.19235507721593403,0.296073332886408,0.19792666711359194,0.3547195639344733,2077.9424597174666,5111.767842144813
1.8021807407407413,846.0451015653973,845.626360307178,0.19244893123401968,0.2961072894061253,0.19789271059387475,0.35471956393447357,2077.882905320676,5113.458332854188
1.8037237037037042,846.1172810280887,845.6985281124746,0.19254282133975728,0.29614125898240723,0.1978587410175928,0.35471956393447385,2077.8233280247237,5115.148001866987
1.805266666666667,846.189483189397,845.7707154948923,0.19263674947482298,0.2961752423177552,0.1978247576822448,0.3547195639344741,2077.7637265975327,5116.836850161472
1.8068096296296299,846.2617086695037,845.8429231226827,0.1927307175644141,0.29620924010870836,0.19779075989129163,0.3547195639344744,2077.704099817484,5118.524878716119
1.8083525925925927,846.3339580834872,845.9151516564406,0.19282472752316357,0.29624325304798366,0.19775674695201637,0.3547195639344747,2077.644446469659,5120.212088509593
1.8098955555555556,846.4062320432416,845.9874017503892,0.19291878126334894,0.29627728182744595,0.1977227181725541,0.35471956393447496,2077.5847653406363,5121.89848052074
1.81221,846.5146903443696,846.0958187370122,0.19305994817360964,0.29632835622009795,0.197671643779902,0.35471956393447535,2077.495188886066,5124.426537337248
1.8145244444444446,846.6232073326889,846.2042878820274,0.1932012245393473,0.29637947021390015,0.19762052978609979,0.3547195639344758,2077.405542977304,5126.952759651307
1.8160674074074077,846.6955856510502,846.2766307095964,0.19329547300368596,0.29641356944484315,0.19758643055515676,0.35471956393447607,2077.3457382874612,5128.635890325207
1.8176103703703703,846.7679916705658,846.3489983654991,0.1933897754015772,0.29644768818902373,0.19755231181097632,0.35471956393447635,2077.2858993744676,5130.318208113921
1.8191533333333334,846.8404261004595,846.4213915400965,0.1934841341402193,0.29648182731736944,0.19751817268263056,0.3547195639344766,2077.2260247108534,5131.999713997783
1.8206962962962965,846.9128897147998,846.4938109603643,0.19357855192304674,0.29651598780798694,0.19748401219201303,0.3547195639344769,2077.166112581173,5133.680408957699
1.8222392592592593,846.9853833842456,846.5662574097765,0.1936730318895203,0.2965501707967378,0.19744982920326223,0.3547195639344772,2077.1061609933045,5135.360293975403
1.8237822222222224,847.057908121314,846.6387317566417,0.19376757781445983,0.29658437764935713,0.19741562235064286,0.35471956393447746,2077.0461675519614,5137.0393700338345
1.8253251851851855,847.1304651447005,846.7112349943828,0.19386219439121752,0.29661861006390666,0.19738138993609333,0.3547195639344778,2076.986129279013,5138.717638117681
1.8268681481481484,847.203055970217,846.783768298546,0.19395688763182276,0.29665287021554726,0.19734712978445268,0.35471956393447807,2076.926042359567,5140.395099214168
1.8284111111111112,847.2756825382819,846.856333106885,0.1940516654274484,0.29668716095931674,0.1973128390406832,0.35471956393447834,2076.8659017863374,5142.071754314187
1.829954074074074,847.3483473904985,846.9289312306537,0.19414653832355758,0.296721486110579,0.19727851388942097,0.3547195639344786,2076.8057008677747,5143.747604413905
1.8314970370370371,847.4210539097802,847.0015650067377,0.19424152057165456,0.2967558508255489,0.1972441491744511,0.3547195639344789,2076.74543056069,5145.422650517019
1.83304,847.4938066379761,847.0742375005507,0.19433663151562455,0.296790262102872,0.19720973789712795,0.35471956393447923,2076.685078590557,5147.096893637901
1.8345829629629629,847.5666116783111,847.1469527665635,0.1944318973381965,0.2968247294154977,0.1971752705845022,0.3547195639344795,2076.624628343314,5148.770334805859
1.836125925925926,847.6394771708384,847.2197161633192,0.1945273531034299,0.29685926544965363,0.1971407345503464,0.3547195639344798,2076.5640575693124,5150.442975070794
1.8376688888888888,847.7124137880681,847.2925346971411,0.19462304484172632,0.2968938868592055,0.19710611314079451,0.35471956393448006,2076.5033370602887,5152.114815510403
1.8392118518518519,847.7854351249832,847.3654173271779,0.194719031091263,0.2969286148233508,0.19707138517664918,0.3547195639344804,2076.4424296712614,5153.785857238799
1.840754814814815,847.8585577497906,847.4383751008218,0.19481538282397487,0.29696347501983844,0.19703652498016158,0.3547195639344807,2076.3812903674952,5155.4561014158935
1.8422977777777778,847.9318005496351,847.5114209071236,0.19491218009949848,0.29699849641436077,0.19700150358563923,0.35471956393448095,2076.3198683477212,5157.125549255897
1.8438407407407407,848.0051828284134,847.5845685253402,0.1950095030106919,0.29703370798463,0.19696629201537,0.3547195639344813,2076.2581127895874,5158.7942020319415
1.8453837037037035,848.078720023953,847.6578303121365,0.1951074117883352,0.29706913152222963,0.1969308684777704,0.35471956393448156,2076.1959854740817,5160.462061071402
1.8469266666666666,848.1524128069013,847.7312111899988,0.19520589652570738,0.29710476344289355,0.19689523655710642,0.3547195639344819,2076.1334926874447,5162.129127729381
1.8484696296296297,848.2262106016772,847.804688657216,0.19530470859628465,0.29714051379318535,0.19685948620681462,0.3547195639344822,2076.0707921938606,5163.795403296967
1.8492411111111111,848.2630902670126,847.84143336579,0.19535396117205578,0.2971583334464555,0.19684166655354451,0.35471956393448234,2076.039539323709,5164.628244737162
1.8500125925925925,848.2998741841811,847.8781378300788,0.19540272476012407,0.29717597618326635,0.1968240238167337,0.3547195639344825,2076.0085967372115,5165.460888665765
1.850784074074074,848.3364325691061,847.9147318060133,0.1954503971387846,0.29719322411893245,0.19680677588106754,0.3547195639344826,2075.9783465698497,5166.293334945198
1.8515555555555556,848.3725566064262,847.9511007400154,0.19549601376680445,0.2972097282810385,0.19679027171896155,0.3547195639344828,2075.9494008643724,5167.125583171915
1.8523270370370373,848.4079822270592,847.9870959843229,0.1955383656638333,0.29722505125874205,0.19677494874125792,0.35471956393448295,2075.922526770626,5167.957632561449
1.8530985185185187,848.4424991492486,848.0225899771439,0.19557651622424946,0.2972388541867724,0.19676114581322768,0.35471956393448306,2075.8983186050186,5168.789481937277
1.8538700000000001,848.4760820130537,848.0575462238218,0.19561041241690671,0.2972511178783838,0.1967488821216162,0.35471956393448323,2075.8768100180832,5169.6211299269
1.8546414814814816,848.5088942098696,848.0920269347095,0.1956408867125355,0.29726214352269276,0.1967378564773072,0.3547195639344834,2075.8574727714654,5170.452575278314
1.8550272222222222,848.5250843208797,848.10912136309,0.19565519958559197,0.2972673219409008,0.19673267805909922,0.35471956393448345,2075.8483906401025,5170.868221662085
1.855412962962963,848.5411669816419,848.1261354911716,0.19566907373172013,0.29727234162707056,0.1967276583729295,0.35471956393448356,2075.8395868997777,5171.283817069072
1.8557987037037038,848.5571646739384,848.1430800559722,0.1956826175145596,0.2972772417873238,0.19672275821267624,0.3547195639344836,2075.830992789118,5171.699361437676
1.8561844444444446,848.5730954889958,848.1599638810727,0.19569591761592395,0.2972820537832663,0.19671794621673375,0.35471956393448373,2075.822553304799,5172.114854722293
1.8569559259259263,848.6048095269787,848.1935759681235,0.1957220386826905,0.297291504423066,0.19670849557693396,0.35471956393448384,2075.8059783684607,5172.94568791762
1.8577274074074077,848.6363856281183,848.227011630987,0.19574779642294768,0.2973008236108083,0.19669917638919177,0.354719563934484,2075.7896339783642,5173.776316494608
1.8584988888888891,848.6678665641009,848.2602952503112,0.19577338584064688,0.2973100818992052,0.1966899181007948,0.35471956393448417,2075.773396396145,5174.606740384673
1.8592703703703706,848.6992759337361,848.2934422648975,0.1957989089264933,0.29731931618864166,0.19668068381135834,0.35471956393448434,2075.7572009043292,5175.436959570009
1.8608133333333334,848.7619276114964,848.3593658991657,0.19584993872826867,0.29733777884485474,0.1966622211551452,0.3547195639344846,2075.7248203081112,5177.09678388425
1.8623562962962963,848.8243957747897,848.4248411613877,0.19590106042732058,0.29735627474963566,0.1966437252503643,0.35471956393448495,2075.692381399133,5178.755789678455
1.8638992592592594,848.8867061975794,848.4899105377565,0.19595231322582202,0.2973748180863874,0.1966251819136126,0.3547195639344852,2075.6598593019353,5180.413977311295
1.8654422222222224,848.9488762185982,848.554610174722,0.19600370218570773,0.2973934106865252,0.19660658931347483,0.35471956393448556,2075.627250804503,5182.07134720598
1.8669851851851853,849.0109203131904,848.6189726487787,0.1960552247732268,0.2974120516333343,0.19658794836666568,0.3547195639344859,2075.5945575146116,5183.727899834303
1.8685281481481482,849.0728515758185,848.6830278400356,0.19610687753636766,0.297430739677872,0.196569260322128,0.35471956393448617,2075.561781622709,5185.383635710355
1.870071111111111,849.1346821278504,848.746803293576,0.196158657600413,0.29744947378006137,0.19655052621993865,0.3547195639344865,2075.528924952927,5187.038555386876
1.871614074074074,849.196423246578,848.810324435859,0.19621056285357333,0.2974682531758539,0.19653174682414612,0.35471956393448684,2075.4959888452854,5188.692659452333
1.8731570370370372,849.2580854248937,848.8736147443477,0.19626259183701553,0.29748707733744156,0.19651292266255835,0.3547195639344871,2075.462974225478,5190.345948528286
1.8747,849.3196784156963,848.9366958970244,0.1963147435974791,0.2975059459199336,0.19649405408006637,0.35471956393448745,2075.4298816983883,5191.998423266921
1.876242962962963,849.38121127397,848.9995879092861,0.19636701756110336,0.2975248587157062,0.19647514128429383,0.3547195639344878,2075.3967116281556,5193.650084348725
1.8777859259259257,849.4426923988689,849.0623092606048,0.19641941343615227,0.2975438156192088,0.19645618438079118,0.3547195639344881,2075.3634641998997,5195.30093248029
1.8793288888888888,849.5041295756334,849.1248770119646,0.19647193114067116,0.29756281660079015,0.19643718339920985,0.3547195639344884,2075.3301394656237,5196.950968392271
1.880871851851852,849.5655300166512,849.187306914693,0.19652457074911578,0.2975818616873885,0.19641813831261154,0.3547195639344887,2075.2967373780825,5198.600192837466
1.8824148148148148,849.6269004011571,849.2496135112536,0.19657733245323844,0.29760095094837996,0.19639904905162,0.35471956393448906,2075.263257815601,5200.248606589038
1.8839577777777778,849.688246913166,849.3118102285051,0.19663021653330273,0.29762008448516447,0.19637991551483552,0.3547195639344894,2075.2297006003396,5201.896210438853
1.885500740740741,849.7495752774487,849.3739094639435,0.19668322333697766,0.29763926242352906,0.1963607375764709,0.3547195639344897,2075.1960655116877,5203.543005195949
1.8870437037037038,849.8108907933992,849.435922665398,0.19673635326369104,0.29765848490798735,0.19634151509201264,0.35471956393449,2075.1623522961913,5205.18899168512
1.8885866666666669,849.8721983667901,849.4978604046538,0.19678960675305682,0.29767775209759234,0.19632224790240765,0.35471956393449033,2075.1285606748957,5206.834170745589
1.89012962962963,849.9335025394238,849.5597324454338,0.19684298427621455,0.29769706416280295,0.1963029358371971,0.35471956393449067,2075.0946903488443,5208.478543229801
1.8916725925925928,849.9948075167533,849.6215478061607,0.19689648632936518,0.29771642128314535,0.19628357871685467,0.354719563934491,2075.060741003175,5210.1221100023
1.8932155555555557,850.0561171935539,849.6833148178846,0.1969501134288859,0.2977358236454456,0.19626417635455434,0.35471956393449133,2075.026712310225,5211.764871938692
1.8947585185185185,850.1174351777369,849.7450411777387,0.19700386610760726,0.29775527144248265,0.19624472855751735,0.35471956393449167,2074.9926039318902,5213.406829924686
1.8963014814814814,850.1787648124139,849.8067339982598,0.19705774491193162,0.2977747648719456,0.19622523512805445,0.354719563934492,2074.9584155214548,5215.047984855217
1.8978444444444442,850.2401091963291,849.8683998528957,0.197111750399642,0.29779430413564106,0.19620569586435896,0.35471956393449233,2074.9241467249813,5216.68833763363
1.8993874074074073,850.3014712027516,849.9300448179825,0.19716588313815794,0.2978138894388624,0.19618611056113763,0.35471956393449267,2074.889797182419,5218.3278891709315
1.9009303703703704,850.3628534969429,849.9916745114679,0.19722014370315974,0.29783352098989146,0.19616647901010853,0.354719563934493,2074.8553665284726,5219.966640385096
1.9024733333333332,850.4242585522902,850.0532941286264,0.19727453267747783,0.2978531989995973,0.19614680100040274,0.35471956393449333,2074.820854393311,5221.6045922004305
1.9040162962962963,850.4856886652066,850.1149084750012,0.19732905065017448,0.29787292368110324,0.19612707631889675,0.35471956393449366,2074.7862604031507,5223.241745546992
1.9055592592592594,850.5471459688954,850.17652199679,0.1973836982158321,0.29789269524953027,0.19610730475046972,0.354719563934494,2074.7515841807026,5224.878101360038
1.9071022222222223,850.608632446046,850.2381388088639,0.197438475973915,0.2979125139217654,0.19608748607823454,0.35471956393449433,2074.7168253455807,5226.513660579536
1.9086451851851851,850.6701499405563,850.2997627206103,0.19749338452825624,0.2979323799162763,0.19606762008372366,0.35471956393449466,2074.681983514627,5228.148424149698
1.910188148148148,850.731700168346,850.3613972597658,0.19754842448661333,0.2979522934529505,0.19604770654704948,0.354719563934495,2074.647058302194,5229.782393018567
1.911731111111111,850.7932847273269,850.4230456943882,0.1976035964602448,0.2979722547529423,0.19602774524705774,0.35471956393449533,2074.612049320412,5231.41556813762
1.9132740740740741,850.8549051066138,850.4847110531289,0.19765890106362013,0.2979922640385675,0.19600773596143253,0.3547195639344957,2074.5769561793727,5233.047950461407
1.914817037037037,850.9165626950092,850.5463961439182,0.19771433891409468,0.29801232153318624,0.19598767846681375,0.35471956393449605,2074.541778487339,5234.679540947229
1.91636,850.9782587888333,850.6081035711995,0.1977699106316572,0.2980324274611114,0.19596757253888866,0.3547195639344964,2074.5065158509005,5236.310340554832
1.9179029629629631,851.0399945991437,850.6698357518196,0.1978256168386852,0.2980525820475199,0.19594741795248005,0.3547195639344967,2074.4711678751332,5237.940350246126
1.919445925925926,851.1017712584003,850.731594929684,0.1978814581597634,0.2980727855183877,0.19592721448161238,0.35471956393449705,2074.4357341637087,5239.56957098492
1.920988888888889,851.163589826594,850.7933831892627,0.19793743522143498,0.29809303810039867,0.19590696189960133,0.35471956393449744,2074.400214319062,5241.1980037366975
1.9225318518518522,851.2254512969216,850.855202468054,0.19799354865208907,0.29811334002090517,0.19588665997909485,0.3547195639344978,2074.36460794245,5242.825649468392
1.924074814814815,851.2873566010012,850.9170545680679,0.19804979908177467,0.29813369150785973,0.1958663084921403,0.3547195639344981,2074.3289146340817,5244.452509148186
1.9256177777777779,851.3493066136892,850.9789411664188,0.19810618714206696,0.2981540927897672,0.19584590721023284,0.3547195639344985,2074.293133993195,5246.078583745324
1.9271607407407407,851.4113021575215,851.0408638250918,0.19816271346594458,0.2981745440956401,0.1958254559043599,0.3547195639344988,2074.2572656181383,5247.703874229947
1.9287037037037038,851.4733440068039,851.1028239999442,0.1982193786876603,0.29819504565495214,0.1958049543450479,0.35471956393449916,2074.22130910645,5249.328381572935
1.9302466666666669,851.5354328913888,851.1648230490089,0.19827618344263978,0.2982155976976011,0.19578440230239894,0.35471956393449955,2074.185264054926,5250.952106745757
1.9317896296296297,851.5975695001541,851.2268622401475,0.1983331283673829,0.2982362004538736,0.1957637995461264,0.3547195639344999,2074.14913005968,5252.575050720349
1.9333325925925928,851.6597544842134,851.288942758107,0.19839021409937435,0.2982568541544126,0.1957431458455874,0.3547195639345002,2074.1129067161996,5254.197214468982
1.934875555555556,851.7219884598761,851.3510657110271,0.19844744127701466,0.29827755903019226,0.19572244096980773,0.3547195639345006,2074.0765936193934,5255.818598964158
1.9364185185185188,851.7842720113686,851.4132321364344,0.19850481053951402,0.29829831531247974,0.19570168468752022,0.35471956393450094,2074.0401903636553,5257.439205178502
1.9379614814814816,851.8466056933569,851.4754430067773,0.19856232252686024,0.29831912323282367,0.19568087676717635,0.3547195639345013,2074.003696542884,5259.059034084668
1.9395044444444445,851.9089900332625,851.5376992345213,0.19861997787974328,0.2983399830230265,0.19566001697697352,0.35471956393450166,2073.9671117505363,5260.678086655255
1.9410474074074073,851.9714255333955,851.6000016768485,0.19867777723948157,0.29836089491511814,0.19563910508488183,0.35471956393450205,2073.930435579667,5262.296363862725
1.9425903703703702,852.0339126729316,851.6623511399914,0.19873572124799196,0.29838185914134513,0.19561814085865487,0.3547195639345024,2073.8936676229523,5263.913866679329
1.9441333333333333,852.0964519097245,851.7247483832278,0.1987938105477309,0.29840287593414916,0.19559712406585095,0.35471956393450277,2073.8568074727273,5265.530596077041
1.9456762962962963,852.1590436819843,851.7871941225627,0.19885204578165835,0.2984239455261539,0.19557605447384607,0.3547195639345031,2073.819854721004,5267.146553027495
1.9472192592592592,852.2216884098198,851.8496890341228,0.19891042759319763,0.29844506815015104,0.195554931849849,0.3547195639345035,2073.782808959505,5268.76173850193
1.9487622222222223,852.2843864966635,851.9122337572873,0.19896895662620018,0.29846624403908684,0.19553375596091319,0.3547195639345038,2073.745669779678,5270.376153471135
1.9503051851851854,852.3471383305816,851.9748288975703,0.1990276335249039,0.29848747342604753,0.19551252657395246,0.3547195639345042,2073.7084367727266,5271.989798905408
1.9518481481481482,852.4099442854865,852.0374750292824,0.19908645893391536,0.29850875654425274,0.19549124345574725,0.3547195639345046,2073.671109529619,5273.6026757745
1.9533911111111113,852.4728047222546,852.1001726979836,0.19914543349819566,0.29853009362705035,0.19546990637294967,0.35471956393450493,2073.633687641102,5275.214785047588
1.9549340740740744,852.5357199897442,852.1629224227366,0.19920455786298455,0.2985514849078889,0.19544851509211103,0.3547195639345053,2073.5961706977423,5276.826127693231
1.9564770370370372,852.598690425756,852.225724698198,0.19926383267384418,0.2985729306203339,0.19542706937966606,0.3547195639345057,2073.5585582899025,5278.436704679337
1.95802,852.6617163579002,852.2885799965334,0.19932325857659694,0.2985944309980447,0.19540556900195527,0.35471956393450604,2073.5208500077815,5280.046516973135
1.959562962962963,852.7247981044029,852.3514887691887,0.19938283621731945,0.2986159862747728,0.19538401372522715,0.35471956393450643,2073.4830454414155,5281.655565541146
1.961105925925926,852.7879359748512,852.4144514485236,0.19944256624233628,0.29863759668435935,0.19536240331564064,0.3547195639345068,2073.445144180684,5283.263851349152
1.962648888888889,852.8511302708771,852.4774684493134,0.19950244929820163,0.2986592624607286,0.19534073753927136,0.3547195639345072,2073.407145815321,5284.871375362184
1.964191851851852,852.9143812867873,852.5405401701369,0.1995624860316771,0.2986809838378799,0.1953190161621201,0.35471956393450754,2073.3690499349277,5286.478138544488
1.9657348148148148,852.9776893101458,852.6036669946528,0.19962267708973008,0.2987027610498868,0.19529723895011317,0.35471956393450793,2073.330856128977,5288.084141859512
1.9672777777777777,853.0410546223134,852.6668492927804,0.19968302311953043,0.29872459433089654,0.19527540566910348,0.3547195639345083,2073.2925639868095,5289.689386269893
1.9688207407407408,853.1044774989381,852.7300874217825,0.19974352476843035,0.29874648391512193,0.19525351608487815,0.3547195639345087,2073.254173097655,5291.293872737431
1.9703637037037038,853.1679582104119,852.7933817272674,0.19980418268395297,0.29876843003683773,0.19523156996316227,0.3547195639345091,2073.2156830506315,5292.89760222308
1.9719066666666667,853.2314970222945,852.8567325441121,0.19986499751380693,0.298790432930386,0.195209567069614,0.3547195639345095,2073.1770934347387,5294.500575686932
1.9734496296296296,853.2950941956975,852.9201401973122,0.19992596990586342,0.2988124928301674,0.19518750716983257,0.3547195639345098,2073.138403838877,5296.102794088213
1.9749925925925924,853.3587499876415,852.983605002765,0.1999871005081521,0.29883460997064004,0.19516539002935995,0.3547195639345102,2073.0996138518412,5297.704258385258
1.9765355555555555,853.4224646513901,853.0471272679938,0.20004838996887214,0.29885678458632325,0.19514321541367674,0.3547195639345106,2073.060723062323,5299.304969535515
1.9780785185185186,853.4862384367509,853.1107072928136,0.20010983893638887,0.29887901691179664,0.19512098308820336,0.354719563934511,2073.021731058907,5300.904928495528
1.9796214814814814,853.5500715903562,853.1743453699445,0.20017144805921885,0.2989013071816944,0.19509869281830564,0.3547195639345114,2072.9826374300796,5302.504136220935
1.9811644444444445,853.6139643559186,853.2380417855773,0.20023321798602822,0.29892365563070483,0.19507634436929513,0.35471956393451176,2072.9434417642374,5304.10259366645
1.983478888888889,853.7099158032671,853.3336964050922,0.20032617580306006,0.2989572879035821,0.19504271209641796,0.35471956393451237,2072.884456045424,5306.498875146109
1.9857933333333335,853.8060027226024,853.4294838381286,0.20041949907938642,0.2989910524001615,0.19500894759983847,0.3547195639345129,2072.825238427026,5308.893473856985
1.988107777777778,853.9022259062971,853.5254049827483,0.20051319000624218,0.29902494991323514,0.19497505008676488,0.35471956393451354,2072.7657875186105,5311.286393009487
1.9904222222222223,853.9985861371078,853.6214607152278,0.2006072507756868,0.29905898123589325,0.19494101876410677,0.35471956393451415,2072.706101929222,5313.677635809259
1.9927366666666668,854.0950841893512,853.7176518926426,0.2007016835805669,0.2990931471615109,0.1949068528384891,0.35471956393451476,2072.6461802674053,5316.067205457162
1.9950511111111113,854.1917208299608,853.8139793551611,0.2007964906145702,0.29912744848376754,0.1948725515162325,0.3547195639345153,2072.586021141172,5318.455105149246
1.9973655555555556,854.2884968194189,853.9104439280762,0.200891674072256,0.2991618859966578,0.1948381140033422,0.3547195639345159,2072.5256231579788,5320.841338076746
1.9996800000000001,854.3854129125779,854.007046423597,0.20098723614905264,0.2991964604944909,0.1948035395055091,0.35471956393451654,2072.464984924734,5323.225907426062
2.0019944444444446,854.4824698593903,854.1037876424397,0.2010831790412905,0.2992311727719023,0.19476882722809763,0.35471956393451715,2072.404105047771,5325.608816378763
2.004308888888889,854.5796684055668,854.2006683752397,0.20117950494626302,0.2992660236238761,0.19473397637612386,0.35471956393451776,2072.3429821328127,5327.990068111572
2.0066233333333336,854.6770092931432,854.2976894037961,0.20127621606222715,0.2993010138457447,0.19469898615425524,0.35471956393451837,2072.281614784971,5330.369665796378
2.0089377777777777,854.774493260994,854.3948515021763,0.20137331458844693,0.29933614423320515,0.19466385576679485,0.354719563934519,2072.2200016087195,5332.747612600227
2.011252222222222,854.8721210452875,854.4921554376962,0.2014708027252335,0.299371415582333,0.194628584417667,0.3547195639345196,2072.1581412078654,5335.12391168533
2.0135666666666667,854.9698933798885,854.5896019717875,0.20156868267398476,0.2994068286895974,0.1945931713104026,0.3547195639345202,2072.0960321855273,5337.498566209074
2.0158811111111112,855.067810996718,854.6871918607683,0.20166695663722664,0.2994423843518753,0.19455761564812465,0.35471956393452087,2072.0336731441093,5339.871579324015
2.0181955555555557,855.1658746260696,854.7849258565225,0.20176562681864418,0.2994780833664632,0.19452191663353677,0.3547195639345215,2071.971062685278,5342.242954177907
2.02051,855.2640849968974,854.8828047071075,0.20186469542314064,0.29951392653109826,0.19448607346890168,0.3547195639345221,2071.908199409928,5344.612693913692
2.0228244444444443,855.3624428370662,854.9808291572896,0.20196416465686823,0.29954991464396963,0.19445008535603037,0.35471956393452275,2071.8450819181603,5346.980801669529
2.025138888888889,855.4609488735754,855.0789999490192,0.2020640367272633,0.29958604850373083,0.19441395149626914,0.35471956393452336,2071.781708809263,5349.3472805787915
2.0274533333333333,855.5596038327647,855.1773178218571,0.2021643138431106,0.29962232890952356,0.19437767109047643,0.35471956393452403,2071.718078681667,5351.712133770093
2.029767777777778,855.6584084404942,855.2757835133494,0.20226499821458946,0.29965875666099373,0.19434124333900626,0.35471956393452464,2071.654190132919,5354.0753643672915
2.0320822222222223,855.7573634223037,855.3743977593628,0.20236609205330885,0.2996953325583048,0.19430466744169517,0.3547195639345253,2071.590041759659,5356.4369754895115
2.034396666666667,855.856469503557,855.4731612943806,0.2024675975723556,0.2997320574021548,0.19426794259784524,0.3547195639345259,2071.5256321575876,5358.796970251155
2.0367111111111114,855.9557274095771,855.5720748517721,0.2025695169863633,0.29976893199380117,0.19423106800619883,0.3547195639345266,2071.4609599214245,5361.155351761918
2.039025555555556,856.0551378657566,855.6711391640252,0.202671852511536,0.29980595713506997,0.19419404286493003,0.35471956393452725,2071.3960236448943,5363.512123126809
2.04134,856.1547015976688,855.7703549629605,0.20277460636571829,0.2998431336283805,0.19415686637161952,0.3547195639345279,2071.3308219206788,5365.867287446161
2.043654444444444,856.2544193311617,855.8697229799201,0.20287778076844043,0.299880462276762,0.194119537723238,0.3547195639345286,2071.265353340392,5368.220847815659
2.0459688888888885,856.3542917924403,855.9692439459335,0.20298137794095222,0.29991794388386583,0.1940820561161341,0.3547195639345292,2071.1996164945544,5370.572807326345
2.048283333333333,856.4543197081501,856.0689185918723,0.20308540010629403,0.2999555792539914,0.19404442074600858,0.35471956393452986,2071.1336099725518,5372.923169064641
2.0505977777777775,856.5545038054494,856.1687476485864,0.20318984948935348,0.2999933691921061,0.19400663080789385,0.3547195639345305,2071.067332362599,5375.271936112372
2.052912222222222,856.6548448120698,856.2687318470244,0.20329472831689657,0.3000313145038572,0.19396868549614277,0.35471956393453125,2071.000782251716,5377.619111546772
2.0552266666666665,856.7553434563795,856.368871918344,0.2034000388176319,0.3000694159955946,0.19393058400440535,0.3547195639345319,2070.933958225692,5379.964698440521
2.057541111111111,856.856000467441,856.4691685940148,0.20350578322227872,0.3001076744743958,0.19389232552560412,0.3547195639345326,2070.8668588690402,5382.30869986174
2.0598555555555556,856.9568165750572,856.5696226059056,0.2036119637635955,0.30014609074807613,0.1938539092519239,0.35471956393453324,2070.7994827649804,5384.651118874032
2.06217,857.0577925098212,856.6702346863663,0.20371858267644596,0.30018466562521245,0.1938153343747876,0.3547195639345339,2070.7318284953944,5386.991958536487
2.0644844444444446,857.1589290031623,856.7710055683057,0.2038256421978638,0.3002233999151667,0.19377660008483333,0.35471956393453463,2070.6638946407897,5389.331221903708
2.066798888888889,857.2602267873843,856.8719359852563,0.2039331445670913,0.3002622944281001,0.19373770557189993,0.3547195639345353,2070.5956797802705,5391.668912025824
2.0691133333333336,857.3616865957057,856.973026671439,0.20404109202564488,0.3003013499749965,0.1936986500250035,0.354719563934536,2070.5271824914985,5394.005031948517
2.071427777777778,857.4633091622956,857.0742783618197,0.20414948681736586,0.300340567367681,0.19365943263231905,0.3547195639345367,2070.4584013506606,5396.3395847130305
2.0737422222222226,857.5650952223109,857.175691792164,0.2042583311884908,0.3003799474188451,0.19362005258115486,0.3547195639345374,2070.3893349324235,5398.672573356203
2.076056666666667,857.6670455119258,857.2772676990843,0.20436762738768907,0.30041949094206083,0.1935805090579392,0.3547195639345381,2070.3199818099088,5401.004000910474
2.0783711111111116,857.769160768368,857.3790068200889,0.20447737766614532,0.30045919875180993,0.1935408012481901,0.3547195639345388,2070.2503405546454,5403.3338704039115
2.080685555555556,857.8714417299402,857.4809098936202,0.2045875842775771,0.30049907166349066,0.19350092833650934,0.3547195639345395,2070.180409736551,5405.662184860229
2.083,857.9738891360657,857.5829776591028,0.20469824947836487,0.3005391104934648,0.19346088950653517,0.35471956393454024,2070.110187923857,5407.988947298806
2.0853144444444442,858.0765037272962,857.6852108569722,0.20480937552752362,0.30057931605904725,0.19342068394095274,0.35471956393454096,2070.0396736831212,5410.3141607347015
2.0876288888888888,858.1792862453477,857.7876102287146,0.20492096468679735,0.3006196891785402,0.19338031082145976,0.3547195639345416,2069.9688655791692,5412.63782817869
2.0899433333333333,858.2822374331378,857.890176516906,0.20503301922076825,0.30066023067127284,0.19333976932872712,0.35471956393454235,2069.8977621750273,5414.959952637259
2.0922577777777778,858.3853580347937,857.9929104652367,0.20514554139683855,0.3007009413575946,0.1932990586424054,0.3547195639345431,2069.8263620319317,5417.280537112647
2.0945722222222223,858.4886487956913,858.095812818549,0.2052585334853452,0.3007418220589166,0.19325817794108344,0.35471956393454385,2069.7546637092564,5419.599584602853
2.096886666666667,858.5921104624736,858.1988843228642,0.20537199775959986,0.30078287359772626,0.19321712640227376,0.35471956393454457,2069.6826657644874,5421.917098101658
2.0992011111111113,858.6957437830737,858.302125725411,0.20548593649593924,0.3008240967976056,0.19317590320239442,0.3547195639345453,2069.610366753191,5424.233080598649
2.101515555555556,858.7995495067503,858.4055377746594,0.20560035197383683,0.3008654924832714,0.19313450751672862,0.354719563934546,2069.5377652289444,5426.547535079237
2.1038300000000003,858.9035283840951,858.5091212203398,0.20571524647588998,0.30090706148057067,0.19309293851942935,0.3547195639345468,2069.4648597433415,5428.86046452467
2.1061444444444444,859.0076811670717,858.6128768134774,0.20583062228795282,0.30094880461652873,0.19305119538347126,0.3547195639345475,2069.39164884591,5431.171871912062
2.108458888888889,859.1120086090307,858.7168053064144,0.20594648169915936,0.3009907227193576,0.19300927728064235,0.3547195639345483,2069.3181310840964,5433.481760214413
2.1107733333333334,859.2165114647322,858.8209074528345,0.2060628270019827,0.30103281661847753,0.19296718338152255,0.354719563934549,2069.244305003227,5435.790132400619
2.113087777777778,859.3211904903767,858.9251840077939,0.20617966049233563,0.3010750871445528,0.19292491285544727,0.3547195639345498,2069.1701691464496,5438.096991435498
2.1154022222222224,859.4260464436236,859.0296357277413,0.20629698446960565,0.3011175351295053,0.19288246487049474,0.3547195639345505,2069.0957220547007,5440.402340279817
2.1177166666666665,859.5310800836137,859.1342633705451,0.20641480123672717,0.30116016140654,0.19283983859346004,0.3547195639345513,2069.0209622666725,5442.706181890297
2.120031111111111,859.6362921709963,859.2390676955182,0.2065331131002533,0.30120296681017117,0.19279703318982885,0.35471956393455206,2068.9458883187563,5445.008519219645
2.1223455555555555,859.7416834679468,859.3440494634394,0.20665192237040408,0.3012459521762398,0.1927540478237602,0.35471956393455284,2068.87049874502,5447.309355216565
2.12466,859.8472547381939,859.449209436581,0.20677123136114597,0.3012891183419423,0.19271088165805778,0.3547195639345536,2068.7947920771517,5449.608692825791
2.1269744444444445,859.9530067470419,859.5545483787304,0.2068910423902541,0.30133246614585296,0.1926675338541471,0.3547195639345544,2068.7187668444244,5451.906534988092
2.129288888888889,860.0589402613984,859.6600670552183,0.20701135777940302,0.30137599642795715,0.1926240035720429,0.35471956393455517,2068.6424215736356,5454.202884640295
2.1316033333333335,860.1650560497897,859.7657662329375,0.20713217985418958,0.30141971002965906,0.19258028997034096,0.35471956393455595,2068.565754789094,5456.497744715321
2.133917777777778,860.2713548823868,859.8716466803683,0.20725351094422118,0.30146360779381415,0.1925363922061859,0.3547195639345567,2068.4887650125656,5458.791118142179
2.1362322222222225,860.3778375310333,859.9777091676046,0.20737535338319646,0.30150769056475774,0.19249230943524218,0.3547195639345575,2068.411450763217,5461.083007846006
2.1385466666666666,860.4845047692671,860.0839544663777,0.2074977095089722,0.30155195918833005,0.19244804081166986,0.35471956393455834,2068.333810557578,5463.373416748079
2.1408611111111107,860.5913573723399,860.1903833500764,0.20762058166360317,0.30159641451188984,0.19240358548811012,0.3547195639345591,2068.255842909515,5465.662347765839
2.143175555555555,860.6983961172458,860.2969965937752,0.20774397219344237,0.30164105738435104,0.192358942615649,0.35471956393455994,2068.177546330167,5467.949803812905
2.1454899999999997,860.8056217827434,860.4037949742567,0.20786788344919982,0.3016858886562037,0.19231411134379628,0.3547195639345607,2068.0989193279065,5470.235787799098
2.147804444444444,860.9130351493795,860.5107792700345,0.2079923177860061,0.30173090917953777,0.19226909082046223,0.35471956393456155,2068.0199604083023,5472.5203026304625
2.1501188888888887,861.0206369995137,860.6179502613801,0.20811727756349246,0.3017761198080711,0.1922238801919289,0.35471956393456233,2067.9406680740685,5474.803351209285
2.152433333333333,861.1284281173425,860.7253087303445,0.20824276514585652,0.30182152139717383,0.19217847860282616,0.35471956393456316,2067.8610408250192,5477.084936434109
2.1547477777777777,861.2364092889211,860.8328554607829,0.20836878290192304,0.3018671148038903,0.19213288519610977,0.354719563934564,2067.7810771580343,5479.365061199768
2.157062222222222,861.3445813021943,860.9405912383811,0.20849533320524422,0.3019129008869749,0.19208709911302504,0.35471956393456483,2067.700775566992,5481.64372839739
2.1593766666666667,861.4529449470152,861.0485168506785,0.20862241843414428,0.30195888050690906,0.19204111949309097,0.35471956393456566,2067.6201345427453,5483.92094091443
2.1616911111111112,861.56150101517,861.1566330870918,0.2087500409717935,0.302005054525927,0.19199494547407292,0.3547195639345665,2067.5391525730697,5486.196701634682
2.1640055555555557,861.6702503004057,861.264940738941,0.2088782032062943,0.30205142380804784,0.19194857619195213,0.35471956393456733,2067.4578281426116,5488.471013438306
2.1663200000000002,861.7791935984534,861.3734405994738,0.20900690753074333,0.30209798921909725,0.19190201078090272,0.35471956393456816,2067.376159732849,5490.743879201842
2.1686344444444448,861.8883317070512,861.4821334638896,0.20913615634329785,0.3021447516267321,0.19185524837326787,0.354719563934569,2067.2941458220484,5493.015301798237
2.1709488888888893,861.9976654259741,861.5910201293665,0.2092659520472712,0.3021917119004746,0.19180828809952538,0.3547195639345698,2067.211784885204,5495.285284096856
2.1732633333333338,862.1071955570571,861.7001013950853,0.20939629705119298,0.30223887091173424,0.1917611290882657,0.3547195639345707,2067.1290753940016,5497.553828963513
2.1755777777777783,862.2169229042158,861.809378062253,0.20952719376886572,0.30228622953382833,0.19171377046617166,0.35471956393457155,2067.046015816779,5499.820939260483
2.177892222222223,862.3268482734786,861.9188509341302,0.20965864461946515,0.3023337886420181,0.1916662113579819,0.35471956393457243,2066.962604618466,5502.086617846524
2.180206666666667,862.4369724730079,862.0285208160556,0.20979065202760092,0.3023815491135308,0.1916184508864692,0.35471956393457327,2066.8788402605433,5504.350867576902
2.182521111111111,862.5472963131281,862.138388515472,0.20992321842339465,0.30242951182758804,0.19157048817241196,0.35471956393457416,2066.794721200995,5506.613691303405
2.1848355555555554,862.6578206063501,862.2484548419515,0.2100563462425532,0.302477677665432,0.19152232233456795,0.35471956393457504,2066.7102458942613,5508.875091874371
2.18715,862.7685461673959,862.3587206072207,0.2101900379264388,0.30252604751035117,0.19147395248964882,0.35471956393457593,2066.6254127911916,5511.135072134697
2.1894644444444444,862.8794738132291,862.469186625188,0.21032429592215976,0.3025746222477128,0.19142537775228718,0.35471956393457676,2066.5402203389935,5513.393634925871
2.191778888888889,862.9906043630726,862.5798537119664,0.2104591226826137,0.30262340276497884,0.19137659723502115,0.35471956393457765,2066.4546669811953,5515.650783085988
2.1940933333333335,863.1019386384451,862.6907226859043,0.2105945206666086,0.3026723899517496,0.19132761004825038,0.35471956393457854,2066.3687511575795,5517.906519449767
2.196407777777778,863.2134774631794,862.8017943676077,0.2107304923388993,0.3027215846997769,0.19127841530022308,0.3547195639345795,2066.282471304154,5520.160846848576
2.1987222222222225,863.3252216634498,862.9130695799662,0.2108670401702711,0.30277098790299445,0.19122901209700552,0.3547195639345804,2066.195825853098,5522.413768110452
2.201036666666667,863.4371720678038,863.0245491481829,0.21100416663763838,0.3028206004575535,0.19117939954244645,0.35471956393458126,2066.1088132327054,5524.665286060121
2.203351111111111,863.5493295071814,863.1362338997974,0.21114187422409247,0.3028704232618401,0.1911295767381599,0.35471956393458215,2066.0214318673466,5526.915403519017
2.2056655555555555,863.6616948149467,863.2481246647135,0.21128016541899433,0.3029204572165086,0.19107954278349143,0.3547195639345831,2065.933680177416,5529.164123305304
2.20798,863.7742688269113,863.3602222752249,0.21141904271803796,0.3029707032245047,0.1910292967754953,0.354719563934584,2065.8455565792883,5531.411448233899
2.2102944444444446,863.8870523813639,863.4725275660437,0.2115585086233425,0.3030211621910988,0.1909788378089012,0.3547195639345849,2065.7570594852623,5533.657381116485
2.212608888888889,864.0000463190946,863.5850413743254,0.21169856564351872,0.30307183502390983,0.1909281649760902,0.3547195639345858,2065.668187303517,5535.901924761544
2.214923333333333,864.113251483423,863.6977645396959,0.2118392162937443,0.3031227226329328,0.19087727736706722,0.35471956393458676,2065.5789384380637,5538.145081974363
2.2172377777777776,864.2266687202268,863.8106979042801,0.2119804630958545,0.30317382593057124,0.19082617406942876,0.3547195639345877,2065.4893112886907,5540.386855557071
2.219552222222222,864.3402988779667,863.9238423127273,0.21212230857840672,0.303225145831661,0.19077485416833898,0.35471956393458864,2065.399304250919,5542.627248308642
2.2218666666666667,864.45414280771,864.0371986122366,0.21226475527674282,0.30327668325349244,0.1907233167465076,0.3547195639345896,2065.3089157159666,5544.866263024931
2.224181111111111,864.5682013631678,864.1507676525894,0.2124078057331114,0.30332843911585466,0.19067156088414536,0.35471956393459053,2065.2181440706668,5547.103902498687
2.2264955555555557,864.68247540071,864.2645502861694,0.21255146249668755,0.30338041434104307,0.190619585658957,0.3547195639345915,2065.126987697459,5549.340169519574
2.22881,864.7969657794031,864.3785473679964,0.2126957281237008,0.30343260985390497,0.190567390146095,0.3547195639345924,2065.0354449743068,5551.575066874198
2.2311244444444447,864.9116733610327,864.4927597557509,0.2128406051774897,0.3034850265818603,0.19051497341813972,0.3547195639345934,2064.9435142746606,5553.808597346117
2.233438888888889,865.0265990101294,864.6071883097998,0.2129860962285687,0.30353766545492455,0.19046233454507536,0.35471956393459436,2064.8511939674204,5556.040763715873
2.2357533333333337,865.1417435940027,864.7218338932288,0.21313220385473985,0.30359052740575054,0.19040947259424942,0.35471956393459536,2064.75848241686,5558.271568761006
2.238067777777778,865.2571079827576,864.8366973718628,0.21327893064111708,0.3036436133696361,0.19035638663036386,0.3547195639345963,2064.6653779826124,5560.501015256078
2.2403822222222227,865.3726930493357,864.9517796143015,0.21342627918026683,0.30369692428457556,0.1903030757154244,0.3547195639345973,2064.5718790195842,5562.729105972693
2.2426966666666672,865.4884996695312,865.0670814919403,0.21357425207222996,0.3037504610912674,0.19024953890873256,0.3547195639345983,2064.4779838779386,5564.95584367952
2.2450111111111113,865.604528722025,865.1826038790022,0.21372285192463283,0.3038042247331547,0.19019577526684528,0.35471956393459925,2064.3836909030233,5567.181231142308
2.247325555555556,865.7207810884139,865.2983476525652,0.21387208135276656,0.30385821615645353,0.19014178384354646,0.35471956393460025,2064.2889984353264,5569.405271123915
2.2496400000000003,865.8372576532327,865.4143136925885,0.21402194297964106,0.3039124363101727,0.19008756368982732,0.35471956393460125,2064.1939048104327,5571.627966384325
2.251954444444445,865.9539593039826,865.5305028819395,0.214172439436064,0.3039668861461422,0.1900331138538578,0.35471956393460224,2064.098408358984,5573.849319680669
2.2542688888888893,866.0708869311673,865.646916106427,0.21432357336075858,0.3040215666190559,0.18997843338094406,0.35471956393460324,2064.0025074065975,5576.069333767247
2.2565833333333334,866.1880414283083,865.7635542548214,0.2144753474003812,0.30407647868647797,0.189923521313522,0.3547195639346043,2063.906200273855,5578.288011395548
2.258897777777778,866.3054236919845,865.8804182188906,0.21462776420964977,0.3041316233088892,0.1898683766911108,0.3547195639346053,2063.8094852762256,5580.505355314274
2.2612122222222224,866.4230346218525,865.9975088934215,0.21478082645138766,0.3041870014497029,0.1898129985502971,0.35471956393460635,2063.7123607240324,5582.721368269361
2.263526666666667,866.5408751206816,866.114827176255,0.21493453679663974,0.30424261407530695,0.18975738592469302,0.35471956393460735,2063.6148249223834,5584.936053003994
2.2658411111111114,866.6589460943744,866.2323739683071,0.21508889792470162,0.30429846215507456,0.1897015378449255,0.3547195639346084,2063.5168761711516,5587.149412258638
2.268155555555556,866.7772484519963,866.3501501736,0.21524391252321406,0.3043545466613978,0.18964545333860228,0.3547195639346094,2063.4185127649125,5589.361448771052
2.2704700000000004,866.8957831058093,866.4681566992921,0.2153995832882638,0.3044108685697248,0.18958913143027517,0.35471956393461046,2063.3197329928844,5591.572165276311
2.272784444444445,867.0145509712971,866.5863944557052,0.21555591292444415,0.3044674288585815,0.18953257114141847,0.3547195639346115,2063.2205351388866,5593.781564506837
2.2750988888888894,867.1335529671898,866.7048643563512,0.2157129041449178,0.30452422850959404,0.18947577149040595,0.35471956393461257,2063.1209174813007,5595.989649192404
2.2774133333333335,867.2527900154963,866.8235673179616,0.2158705596715142,0.30458126850752415,0.18941873149247582,0.3547195639346136,2063.02087829301,5598.196422060173
2.2797277777777776,867.3722630415338,866.9425042605177,0.21602888223480804,0.30463854984029787,0.18936145015970218,0.3547195639346147,2062.9204158413468,5600.401885834708
2.282042222222222,867.4919729739487,867.0616761072747,0.2161878745741677,0.30469607349902245,0.18930392650097755,0.3547195639346158,2062.8195283880664,5602.606043237997
2.2843566666666666,867.6119207447547,867.181083784795,0.21634753943787322,0.3047538404780297,0.18924615952197024,0.35471956393461684,2062.7182141892654,5604.808896989478
2.286671111111111,867.7321072893553,867.3007282229736,0.21650787958316636,0.3048118517748938,0.18918814822510624,0.3547195639346179,2062.616471495356,5607.010449806055
2.2889855555555556,867.8525335465711,867.4206103550666,0.21666889777632425,0.3048701083904576,0.18912989160954238,0.354719563934619,2062.5142985510174,5609.21070440212
2.2913,867.9732004586708,867.5407311177205,0.21683059679274796,0.3049286113288654,0.1890713886711346,0.3547195639346201,2062.4116935951383,5611.409663489582
2.2936144444444446,868.0941089713983,867.6610914510002,0.21699297941703038,0.3049873615975869,0.18901263840241317,0.3547195639346212,2062.3086548607766,5613.607329777881
2.295928888888889,868.2152600340044,867.7816922984192,0.21715604844304984,0.3050463602074512,0.18895363979254884,0.3547195639346223,2062.205180575095,5615.80370597401
2.2982433333333336,868.3366545992701,867.9025346069661,0.21731980667402426,0.3051056081726667,0.18889439182733325,0.3547195639346234,2062.1012689593313,5617.99879478254
2.3005577777777777,868.4582936235363,868.0236193271323,0.2174842569225887,0.30516510651084894,0.18883489348915106,0.3547195639346245,2061.9969182287496,5620.192598905644
2.302872222222222,868.5801780667383,868.1449474129458,0.2176494020109033,0.3052248562430594,0.1887751437569406,0.3547195639346256,2061.892126592567,5622.385121043112
2.3051866666666667,868.7023088924232,868.266519821992,0.217815244770673,0.3052848583938131,0.1887151416061869,0.3547195639346268,2061.7868922539465,5624.576363892375
2.3075011111111112,868.8246870677899,868.3883375154503,0.2179817880432872,0.3053451139911288,0.18865488600887118,0.3547195639346279,2061.681213409904,5626.766330148532
2.3098155555555557,868.9473135637064,868.5104014581154,0.21814903467982716,0.3054056240665319,0.1885943759334681,0.35471956393462906,2061.575088251306,5628.955022504365
2.31213,869.0701893547471,868.6327126184311,0.21831698754119847,0.30546638965510214,0.18853361034489788,0.35471956393463017,2061.4685149627862,5631.142443650364
2.3144444444444443,869.1933154192193,868.7552719685175,0.2184856494981864,0.3055274117954938,0.18847258820450624,0.35471956393463133,2061.361491722708,5633.328596274751
2.316758888888889,869.3166927391864,868.878080484198,0.21865502343151064,0.3055886915299554,0.18841130847004464,0.3547195639346325,2061.254016703131,5635.513483063498
2.3190733333333333,869.4403223005017,869.0011391450296,0.21882511223192502,0.3056502299043659,0.1883497700956341,0.3547195639346336,2061.1460880697477,5637.697106700351
2.321387777777778,869.5642050928367,869.1244489343316,0.21899591880029,0.3057120279682608,0.18828797203173922,0.3547195639346348,2061.037703981839,5639.879469866853
2.3237022222222223,869.6883421097064,869.2480108392126,0.21916744604763214,0.30577408677485374,0.18822591322514626,0.35471956393463594,2060.9288625922327,5642.060575242363
2.326016666666667,869.8127343485014,869.3718258506025,0.21933969689523827,0.30583640738107054,0.18816359261892945,0.35471956393463716,2060.8195620472475,5644.240425504079
2.3283311111111114,869.9373828105133,869.495894963277,0.21951267427470816,0.3058989908475682,0.18810100915243178,0.3547195639346383,2060.7098004866575,5646.419023327067
2.330645555555556,870.0622885009615,869.6202191758874,0.21968638112803213,0.3059618382387631,0.18803816176123686,0.3547195639346395,2060.599576043644,5648.596371384269
2.33296,870.1874524290253,869.74479949099,0.2198608204076707,0.30602495062285984,0.18797504937714019,0.3547195639346407,2060.488886844744,5650.772472346539
2.335274444444444,870.312875607876,869.8696369150773,0.22003599507665214,0.30608832907188616,0.18791167092811384,0.3547195639346419,2060.3777310097894,5652.947328882657
2.3375888888888885,870.4385590546959,869.9947324586016,0.22021190810859487,0.30615197466170163,0.18784802533829842,0.3547195639346431,2060.2661066518917,5655.120943659355
2.339903333333333,870.564503790712,870.1200871360057,0.22038856248781363,0.3062158884720356,0.18778411152796443,0.3547195639346443,2060.1540118773755,5657.293319341337
2.3422177777777775,870.6907108412295,870.245701965756,0.2205659612094094,0.30628007158652,0.18771992841348006,0.35471956393464554,2060.0414447857206,5659.464458591303
2.344532222222222,870.8171812356468,870.3715779703621,0.2207441072792807,0.3063445250926931,0.18765547490730686,0.35471956393464676,2059.9284034695556,5661.63436406997
2.3468466666666665,870.9439160074929,870.4977161764108,0.22092300371424248,0.30640925008204317,0.18759074991795685,0.354719563934648,2059.814886014583,5663.803038436095
2.349161111111111,871.0709161944558,870.6241176145952,0.2211026535420907,0.30647424765003106,0.18752575234996902,0.3547195639346492,2059.700890499535,5665.970484346498
2.3514755555555555,871.1981828384132,870.750783319744,0.22128305980169113,0.30653951889612274,0.18746048110387734,0.3547195639346505,2059.586414996121,5668.136704456081
2.35379,871.3257169854529,870.8777143308461,0.22146422554301176,0.306605064923801,0.18739493507619895,0.3547195639346517,2059.4714575690073,5670.301701417856
2.3561044444444446,871.4535196859074,871.0049116910827,0.22164615382722175,0.3066708868406015,0.18732911315939843,0.354719563934653,2059.3560162757494,5672.465477882964
2.358418888888889,871.5815919943772,871.1323764478526,0.2218288477267429,0.3067369857581308,0.1872630142418692,0.35471956393465426,2059.240089166765,5674.628036500696
