z,T,t,fs,x,y,w,rhob,p
0.0,556.2445724808133,298.0,0.0,0.22647889077598912,0.2675211092240109,0.3547196604042524,2200.0,2040.0
0.002314444444444445,577.4096648820062,346.7201496029088,5.275213801551449e-07,0.22647908163398872,0.2675209183660113,0.3547196604042524,2199.999665265076,2044.8100450052082
0.00462888888888889,596.21588508981,389.6481950910092,2.213065716279694e-06,0.2264796914663715,0.26752030853362846,0.3547196604042524,2199.9985957149574,2049.8878014082306
0.00925777777777778,627.9522047658398,461.36127997777623,1.2869482303563432e-05,0.22648354697333165,0.2675164530266684,0.3547196604042524,2199.9918337619292,2060.7350981616073
0.013886666666666669,653.398413068978,518.2323704794785,3.89520373745552e-05,0.22649298367954426,0.2675070163204557,0.3547196604042524,2199.975283262913,2072.345144727233
0.01851555555555556,673.9540079322798,563.7809056867519,8.474285121930821e-05,0.22650955086233424,0.26749044913766573,0.3547196604042524,2199.946227029065,2084.557798481688
0.023144444444444447,690.6557178348373,600.5353201119311,0.00015170538717729681,0.22653377800485802,0.267466221995142,0.3547196604042524,2199.9037364301767,2097.2428452787794
0.027773333333333337,704.2889011155246,630.3659756882466,0.00023943786325497882,0.22656551974180825,0.2674344802581918,0.3547196604042524,2199.848066414142,2110.294434789622
0.03240222222222223,715.4590480566004,654.688044796493,0.0003465415023859784,0.22660426999361574,0.2673957300063842,0.3547196604042524,2199.780104564957,2123.626519740872
0.03703111111111112,724.6395358713396,674.591437553532,0.0004711898932582531,0.22664936796202179,0.2673506320379782,0.3547196604042524,2199.7010098188753,2137.1691516840838
0.04628888888888889,738.4523669830716,704.3676242529391,0.0007654949956213577,0.22675584797444093,0.26724415202555907,0.3547196604042524,2199.51426061835,2164.669386083067
0.050917777777777784,743.6236270194802,715.4499510047534,0.0009315943145851702,0.22681594294868387,0.2671840570513161,0.3547196604042524,2199.4088634819254,2178.54324500952
0.055546666666666675,747.9117524569187,724.6037441550292,0.0011082494520748766,0.22687985703336258,0.2671201429666374,0.3547196604042524,2199.2967682262533,2192.456744181462
0.06480444444444446,754.4391867668236,738.4506404202003,0.0014881205191477462,0.22701729493578024,0.2669827050642198,0.35471966040425246,2199.055723754007,2220.3090342733144
0.07406222222222224,758.9786045356909,747.9811868180813,0.0018965834427716148,0.2271650774133214,0.26683492258667857,0.35471966040425246,2198.796536523414,2248.0812112764656
0.08332000000000002,762.1637249910091,754.5783265815234,0.0023274325007506557,0.22732095922670495,0.2666790407732951,0.35471966040425246,2198.5231443311663,2275.6799120488913
0.0925777777777778,764.423617663308,759.1744239202901,0.00277621832929896,0.2274833305896669,0.2665166694103331,0.35471966040425246,2198.238370489274,2303.0462623338844
0.10183555555555557,766.050343235393,762.4022913886474,0.0032397782793029324,0.22765104725117605,0.266348952748824,0.3547196604042525,2197.944221834142,2330.144402594538
0.11109333333333335,767.2433959660386,764.6933289052748,0.0037158755052398504,0.22782329991728148,0.2661767000827185,0.3547196604042525,2197.642117740118,2356.9537892548833
0.12035111111111113,768.1393454660888,766.3424717770033,0.0042029325797710345,0.2279995178724868,0.2660004821275132,0.3547196604042525,2197.333059152453,2383.464023611544
0.1296088888888889,768.8318124447339,767.5517221096826,0.004699838916694751,0.22817929930509515,0.2658207006949049,0.35471966040425257,2197.0177507856893,2409.671377701588
0.1388666666666667,769.3850256514198,768.4595810751892,0.005205813183076038,0.22836236152771872,0.2656376384722813,0.35471966040425257,2196.6966884290587,2435.5764615452676
0.14812444444444448,769.8430661966929,769.1610663527575,0.005720305705873142,0.22854850566785462,0.2654514943321454,0.35471966040425257,2196.3702208736645,2461.1826589653633
0.15738222222222226,770.2361908154694,769.7213800377443,0.006242929572478747,0.228737591739961,0.265262408260039,0.3547196604042526,2196.0385936321377,2486.495081247075
0.16664,770.5851657089366,770.1852650297606,0.006773412145823084,0.228929521103551,0.26507047889644897,0.3547196604042526,2195.701979704383,2511.5198697262485
0.18052666666666667,771.0557449270326,770.764698812612,0.007583466231036134,0.2292225998451735,0.2647774001548265,0.3547196604042527,2195.187965670712,2548.5324940912
0.19441333333333335,771.4887094122465,771.260134939496,0.00841035341508394,0.22952176882634193,0.26447823117365804,0.3547196604042527,2194.6632703144114,2584.936642616861
0.20830000000000004,771.9014813954104,771.7091010363615,0.009253817754048014,0.22982693544617577,0.2641730645538242,0.35471966040425273,2194.1280560428672,2620.75589701035
0.2221866666666667,772.3039453585966,772.1328856062062,0.010113706292672645,0.23013804436524188,0.2638619556347581,0.3547196604042528,2193.5824199127437,2656.01316134542
0.24996000000000004,773.0979169498405,772.9479004725214,0.011882430995211558,0.23077797152511836,0.26322202847488163,0.35471966040425285,2192.4600882864956,2724.928158106789
0.2777333333333334,773.8922175687208,773.7516363960801,0.013716180179555367,0.2314414246367182,0.26255857536328175,0.35471966040425296,2191.296495839779,2791.84303030171
0.3055066666666667,774.6937536721791,774.5588944837721,0.015614892107627397,0.23212838136311584,0.2618716186368842,0.35471966040425307,2190.091681748049,2856.9013494026954
0.33328,775.5047874971649,775.3744568635396,0.017578647300835144,0.23283887083707314,0.2611611291629269,0.3547196604042532,2188.8455949170216,2920.230666484286
0.36105333333333334,776.3261042739432,776.1999117494493,0.019607617391422125,0.23357295515538445,0.26042704484461554,0.3547196604042533,2187.558126438683,2981.9446674745313
0.3888266666666667,777.1580252810029,777.0358372244864,0.021702044529801272,0.23433072192842,0.25966927807157997,0.3547196604042534,2186.2291226582183,3042.145132241338
0.40734222222222227,777.7186214269179,777.5990729380412,0.023134841522322123,0.23484910995612565,0.25915089004387437,0.3547196604042535,2185.3199515608785,3081.483504740674
0.42585777777777784,778.2840529775923,778.1671321440139,0.024596967375413337,0.2353781092080768,0.25862189079192316,0.3547196604042536,2184.3921700445553,3120.2149493241777
0.4443733333333334,778.854359478138,778.7400592990228,0.026088535689251468,0.23591776078498194,0.25808223921501805,0.35471966040425373,2183.445706025069,3158.3627686947566
0.46288888888888896,779.4295801401729,779.3178964270242,0.027609669778895618,0.23646810930240805,0.2575318906975919,0.3547196604042538,2182.4804812537286,3195.948819053947
0.4814044444444445,780.0097547681813,779.9006851523469,0.029160502246206057,0.23702920273590036,0.25697079726409966,0.3547196604042539,2181.4964115889716,3232.993634271476
0.4999200000000001,780.5949241751168,780.4884676263747,0.030741174597661822,0.23760109228270793,0.25639890771729207,0.354719660404254,2180.4934072388724,3269.516536680952
0.5184355555555556,781.1851303645229,781.0812869462334,0.0323518368994424,0.2381838322369919,0.2558161677630081,0.3547196604042541,2179.4713729800083,3305.535736204892
0.5369511111111113,781.7804166069006,781.6791873413281,0.033992647464007895,0.23877747987642978,0.2552225201235702,0.3547196604042543,2178.4302083563384,3341.068419270978
0.5554666666666668,782.3808274689989,782.2822142545865,0.03566377256396699,0.23938209535869223,0.2546179046413078,0.3547196604042544,2177.369807860767,3376.130828774009
0.5739822222222223,782.9864088229008,782.8904143765948,0.03736538616992808,0.23999774162659743,0.25400225837340257,0.3547196604042545,2176.2900611014875,3410.7383361616667
0.5924977777777779,783.5972078471872,783.5038356592366,0.03909766970960467,0.24062448432095496,0.25337551567904504,0.3547196604042547,2175.1908529548396,3444.9055065728867
0.6110133333333334,784.2132730258179,784.122527320979,0.04086081184584627,0.2412623917002571,0.2527376082997429,0.35471966040425484,2174.07206370616,3478.6461578312196
0.6295288888888889,784.834654147395,784.7465398493458,0.04265500827156691,0.24191153456648368,0.2520884654335163,0.35471966040425496,2172.933569179908,3511.973413988427
0.6480444444444445,785.4614023062243,785.3759250031517,0.044480461519781855,0.24257198619637302,0.25142801380362695,0.3547196604042551,2171.7752408602046,3544.8997540224973
0.66656,786.0935699061891,786.0107358157721,0.04633738078716143,0.24324382227758357,0.25075617772241643,0.3547196604042553,2170.596946002798,3577.4370562166832
0.6850755555555557,786.7312106685216,786.6510266002383,0.048225981769679536,0.24392712084923115,0.25007287915076887,0.35471966040425545,2169.398547739348,3609.596638679869
0.7035911111111112,787.3743796450063,787.2968529568627,0.05014648650908013,0.24462196224634042,0.24937803775365958,0.3547196604042557,2168.1799051748526,3641.389296411752
0.7221066666666668,788.0231332390172,787.9482717843075,0.05209912324901578,0.24532842904779556,0.24867157095220446,0.35471966040425584,2166.9408734789317,3672.82533526751
0.7406222222222224,788.6775292382487,788.6053412954577,0.05408412629982922,0.246046606027418,0.24795339397258198,0.35471966040425607,2165.681303971631,3703.9146031345954
0.7591377777777778,789.3376268654222,789.2681210402567,0.056101735911060935,0.24677658010783965,0.24722341989216035,0.35471966040425623,2164.4010442043214,3734.6665185980773
0.7776533333333334,790.0034868572084,789.9366719389653,0.05815219815087555,0.24751844031687886,0.24648155968312113,0.35471966040425645,2163.099938036206,3765.0900973397265
0.796168888888889,790.675171588152,790.6110563314162,0.060235764791717994,0.24827227774617106,0.24572772225382897,0.3547196604042567,2161.777825706878,3795.19397648921
0.8146844444444445,791.3527452672417,791.2913380512751,0.062352693201649684,0.24903818551185367,0.24496181448814633,0.35471966040425695,2160.434543905273,3824.986437122921
0.8332000000000002,792.0362742528724,791.9775825399447,0.06450324624099366,0.24981625871717242,0.24418374128282758,0.3547196604042572,2159.0699258352506,3854.475425086883
0.8517155555555558,792.7258275623565,792.6698570239822,0.06668769216417039,0.2506065944169653,0.2433934055830347,0.35471966040425745,2157.683801277884,3883.668570304901
0.8702311111111113,793.4214777034665,793.3682307951868,0.0689063045269858,0.2514092915841192,0.24259070841588085,0.3547196604042577,2156.275996650291,3912.5732047221663
0.8887466666666668,794.1233020426488,794.0727756579365,0.07115936210023054,0.25222445107831,0.24177554892169,0.35471966040425795,2154.8463350604566,3941.1963790289547
0.9072622222222223,794.831385073329,794.7835666509771,0.07344714879141793,0.2530521756176874,0.24094782438231258,0.3547196604042583,2153.394636356897,3969.5448783109778
0.9257777777777779,795.5458222029401,795.5006832228507,0.07576995357809195,0.2538925697547455,0.24010743024525452,0.35471966040425856,2151.920717170976,3997.625236786265
0.9442933333333334,796.2667261167663,796.2242111629213,0.07812807045882768,0.2547457398585946,0.23925426014140536,0.3547196604042589,2150.424390947997,4025.4437518199557
0.962808888888889,796.9942375352691,796.9542458019068,0.08052179843262883,0.2556117941075076,0.2383882058924924,0.3547196604042592,2148.9054679602787,4053.0064974699226
0.9813244444444447,797.7285434905369,797.6908973678098,0.0829514415253192,0.2564908424984679,0.23750915750153212,0.35471966040425956,2147.363755290405,4080.3193379282866
0.9998400000000002,798.4699084952238,798.4343000512258,0.08541730889534448,0.257382996885449,0.236617003114551,0.3547196604042599,2145.799056764094,4107.387941421487
1.0183555555555557,799.2187277866221,799.1846275728767,0.08791971507608512,0.25828837106708374,0.23571162893291628,0.3547196604042603,2144.211172796435,4134.217795473062
1.0368711111111113,799.9756181023711,799.9421204423163,0.09045898045712421,0.25920708096078743,0.23479291903921257,0.3547196604042607,2142.5999000865063,4160.814225011905
1.055386666666667,800.7415711762723,800.7071349625606,0.09303543219332167,0.26013924493166235,0.23386075506833767,0.35471966040426106,2140.965031040529,4187.182415760878
1.0739022222222225,801.5182083297367,801.4802343497656,0.09564940590248537,0.26108498440671757,0.2329150155932824,0.35471966040426145,2139.3063526946203,4213.327446823757
1.0924177777777782,802.3081864108207,802.262364460561,0.09830124886800895,0.2620444250335882,0.2319555749664118,0.3547196604042619,2137.6236446825824,4239.254338447784
1.1109333333333336,803.1157963642163,803.055201102533,0.10099132620487128,0.2630176989114024,0.23098230108859757,0.3547196604042624,2135.916675323315,4264.968123051997
1.129448888888889,803.947713291528,803.8618251847378,0.10372003289803079,0.2640049489462905,0.2299950510537095,0.35471966040426284,2134.1851939819326,4290.473947549162
1.1479644444444446,804.8136104607387,804.6879042363958,0.10648781685044349,0.26500633719019084,0.22899366280980918,0.35471966040426334,2132.4289164448146,4315.777207006974
1.1664800000000002,805.7259197702631,805.5432405886042,0.1092952192104568,0.26602205943135954,0.2279779405686405,0.35471966040426384,2130.6474993301417,4340.883684909681
1.1849955555555558,806.6978023886368,806.4424844887831,0.11214293165973103,0.26705236592122333,0.2269476340787767,0.3547196604042644,2128.840503736258,4365.799633281313
1.2035111111111112,807.7393006195333,807.4027608715576,0.11503184893015672,0.2680975803750765,0.22590241962492347,0.354719660404265,2127.0073619174327,4390.531700477964
1.2220266666666668,808.8536712924955,808.4377052422155,0.11796307286719993,0.2691581014422051,0.22484189855779488,0.35471966040426556,2125.147374705496,4415.086667541093
1.2405422222222224,810.0365982351917,809.5518485036066,0.12093784113305482,0.270234376910584,0.223765623089416,0.3547196604042662,2123.2597567507423,4439.4710814959235
1.2590577777777778,811.2786832652944,810.7399297376699,0.12395740908528902,0.27132686097039993,0.2226731390296001,0.3547196604042669,2121.343711474995,4463.690951626625
1.2775733333333334,812.5690730344484,811.9907729777099,0.12702294307814052,0.27243597561030597,0.22156402438969408,0.3547196604042676,2119.398498776502,4487.75161572439
1.296088888888889,813.898111997271,813.2919848664344,0.1301354564559788,0.273562087459763,0.22043791254023698,0.3547196604042684,2117.4234756448336,4511.657766079567
1.3146044444444447,815.2584412313179,814.6329221641253,0.13329577585120933,0.27470549559557317,0.21929450440442685,0.35471966040426917,2115.4181175463,4535.413561586809
1.33312,816.644994624382,816.0056885582239,0.13650449968843031,0.2758664165286229,0.2181335834713771,0.35471966040427005,2113.3820447548474,4559.022757604115
1.351635555555556,818.0545007731531,817.4049394694606,0.1397618965829676,0.2770449474443263,0.21695505255567368,0.35471966040427094,2111.3150868225393,4582.488816330645
1.3701511111111113,819.4848707488177,818.8272251419178,0.1430676645502808,0.27824097908423917,0.21575902091576082,0.35471966040427194,2109.217435371509,4605.814985872464
1.388666666666667,820.9346057441752,820.2702537643233,0.1464204058535868,0.2794540057451683,0.21454599425483167,0.35471966040427294,2107.0899773256483,4629.004348287885
1.4071822222222226,822.4021890383269,821.7321661762842,0.14981653185271623,0.28068272905190134,0.2133172709480987,0.35471966040427405,2104.934989830944,4652.059838825188
1.425697777777778,823.8853038158625,823.2107239910791,0.1532480531558413,0.2819242584309,0.2120757415691,0.35471966040427527,2102.757542498912,4674.984233999914
1.4442133333333336,825.3796047642918,824.7021753609828,0.15669834500577717,0.2831725790209292,0.2108274209790708,0.3547196604042765,2100.568184450477,4697.780096678878
1.4627288888888892,826.8767305473805,826.1994905666382,0.16013489999356573,0.28441592959433165,0.20958407040566837,0.3547196604042778,2098.387543029797,4720.449653418181
1.4812444444444448,828.3616637370272,827.6899231871539,0.16349994897966502,0.2856334091927262,0.20836659080727382,0.35471966040427927,2096.252275231732,4742.994573143122
1.4997600000000002,829.8112237427496,829.1531202912608,0.1667067026023202,0.2867936172992909,0.20720638270070907,0.3547196604042808,2094.217452625859,4765.415653574975
1.5182755555555556,831.1977728003934,830.5631237301083,0.1696571390810113,0.28786108949182154,0.20613891050817848,0.35471966040428243,2092.3452742328523,4787.712552838368
1.5367911111111112,832.4994996881229,831.8964803942973,0.1722832394482023,0.28881121640931867,0.20518878359068132,0.35471966040428415,2090.678901002711,4809.883842626185
1.5553066666666668,833.7093179617558,833.1413513564708,0.17457624179292333,0.28964082797969937,0.20435917202030063,0.35471966040428593,2089.223892743456,4831.927506402694
1.5738222222222225,834.8342033654477,834.2996902226034,0.17657575368906403,0.2903642542805797,0.20363574571942028,0.3547196604042878,2087.955116751988,4853.841600993491
1.5923377777777779,835.8883212963867,835.3826011841131,0.17833978186485447,0.2910024822302725,0.20299751776972755,0.35471966040428987,2086.835765273241,4875.624707327917
1.6108533333333335,836.8869861823047,836.4044646628462,0.1799237594259943,0.2915755676067303,0.2024244323932697,0.3547196604042919,2085.8306636259454,4897.27607688441
1.629368888888889,837.843703745778,837.3791423444774,0.18137300466620337,0.2920999066342774,0.20190009336572265,0.35471966040429415,2084.9110554105227,4918.7955861799355
1.6478844444444445,838.7693734175634,838.3183925215201,0.18272236238112177,0.29258810621045883,0.20141189378954114,0.3547196604042964,2084.0548301107906,4940.183620538816
1.6664000000000003,839.6724573276807,839.2315931105379,0.18399812041100194,0.2930496773139635,0.20095032268603655,0.3547196604042988,2083.2453069654875,4961.440952840426
1.6849155555555557,840.5594384632186,840.126018737774,0.18522012500335253,0.2934918003458927,0.2005081996541073,0.3547196604043013,2082.4698926800156,4982.568641211893
1.7034311111111116,841.4352854310332,841.0072638295211,0.18640350362239697,0.293919948444719,0.20008005155528097,0.3547196604043039,2081.7189882300054,5003.567949803368
1.721946666666667,842.3038357455645,841.8796408290232,0.1875599394947086,0.29433834861874314,0.19966165138125688,0.3547196604043066,2080.985180107486,5024.440289693605
1.7404622222222226,843.1680872539489,842.7465022425605,0.1886985835976315,0.29475031170482585,0.19924968829517414,0.3547196604043094,2080.2626616251487,5045.1871754318445
1.758977777777778,844.0304121353754,843.610484503354,0.18982670245149405,0.29515846674054963,0.19884153325945036,0.35471966040431235,2079.546821864422,5065.810193140314
1.7774933333333336,844.8927121269339,844.4736873556441,0.19095014053035195,0.29556492826509523,0.1984350717349048,0.3547196604043154,2078.8339522560404,5086.310976996364
1.7960088888888892,845.7565311608637,845.337804555229,0.1920736541330852,0.29597141711428815,0.19802858288571185,0.35471966040431857,2078.1210347245233,5106.691191762697
1.8145244444444446,846.623139649048,846.2042204254467,0.19320116454165775,0.29637935201362414,0.19762064798637588,0.35471966040432185,2077.405581048409,5126.95251971513
1.8330400000000002,847.4937471488648,847.0741725522914,0.19433661539619274,0.29679015977781315,0.19720984022218682,0.3547196604043253,2076.6850888190274,5147.096651770624
1.837668888888889,847.7123550310803,847.2924717431448,0.19462302769265066,0.29689378416162,0.19710621583838,0.3547196604043262,2076.503347942112,5152.1145733133635
1.842297777777778,847.9317420191135,847.5113593141073,0.19491216058723385,0.2969983928617701,0.19700160713822992,0.35471966040432706,2076.319880729089,5157.125306735618
1.846926666666667,848.1523520871488,847.7311496380732,0.19520586347268043,0.29710465499123545,0.19689534500876454,0.35471966040432795,2076.133513661007,5162.128884907068
1.8492411111111116,848.263028559378,847.8413715954191,0.19535392268322319,0.297158223028115,0.19684177697188499,0.3547196604043284,2076.0395637465226,5164.628001754513
1.8503983333333336,848.3181313966057,847.8963931554156,0.1954267122608282,0.2971845584027486,0.19681544159725142,0.3547196604043286,2075.993375639979,5165.876893460552
1.8515555555555558,848.3724967375026,847.9510399831589,0.1954959837999807,0.29720962094597314,0.19679037905402685,0.3547196604043289,2075.9494198796065,5167.125340019221
1.8523270370370373,848.4079237301767,847.9870359887316,0.1955383420242509,0.2972249462128818,0.19677505378711818,0.354719660404329,2075.9225417709545,5167.957389354512
1.853098518518519,848.442442246234,848.022530892874,0.19557649985600176,0.2972387517716915,0.19676124822830848,0.3547196604043292,2075.898328991373,5168.789238678499
1.8546414814814818,848.5088382473423,848.0919685414488,0.19564087421974136,0.2972620425097567,0.1967379574902433,0.3547196604043295,2075.857480698679,5170.452331916102
1.8561844444444446,848.573040747538,848.1599065030723,0.19569590981314836,0.29728195446718564,0.19671804553281436,0.3547196604043298,2075.822558255994,5172.114611269049
1.8577274074074077,848.6363314967199,848.2269549087373,0.19574779055587097,0.2973007249950663,0.19669927500493367,0.3547196604043301,2075.789637701276,5173.776072950442
1.8608133333333337,848.7618751758615,848.3593108711206,0.19584993858459454,0.2973376822998482,0.1966623177001518,0.3547196604043307,2075.724820399278,5177.096540173822
1.8638992592592596,848.8866540135879,848.4898561940728,0.19595231274871142,0.297374721420743,0.196625278579257,0.35471966040433134,2075.659859604682,5180.413733429243
1.8669851851851855,849.0108682340759,848.6189188065504,0.1960552235732772,0.2974119547061657,0.19658804529383428,0.35471966040433195,2075.594558276031,5183.727655781196
1.8700711111111115,849.1346301005941,848.746749841974,0.19615865566304141,0.29744937658609244,0.19655062341390758,0.3547196604043326,2075.528926182272,5187.038311163374
1.8885866666666669,849.8721348257831,849.4977844340694,0.19678959750246985,0.2976776522576915,0.1963223477423085,0.35471966040433645,2075.12856654479,5206.83392583814
1.9071022222222223,850.6085703989249,850.2380678428742,0.1974384621157444,0.2979124124148341,0.19608758758516587,0.35471966040434044,2074.716834139184,5226.51341449571
1.925617777777778,851.3492466078484,850.9788764257793,0.19810616862752653,0.29815398959815453,0.1958460104018455,0.35471966040434455,2074.2931457414647,5246.078336422631
1.9441333333333337,852.0963926348677,851.724687028545,0.1987937873053444,0.29840277103199486,0.1955972289680051,0.3547196604043488,2073.8568222210174,5265.530347520385
1.9626488888888893,852.8510706490222,852.4774081554408,0.19950242124026119,0.29865915581630004,0.19534084418369996,0.35471966040435327,2073.4071636192866,5284.87112556603
1.9811644444444447,853.6139037450462,853.2379811894867,0.20023318500405515,0.2989235472047541,0.19507645279524588,0.3547196604043579,2072.9434626927127,5304.102342607722
1.9996800000000003,854.3853509649958,854.0069848127386,0.20098719811843413,0.2991963502419329,0.19480364975806708,0.35471966040436265,2072.465009056791,5323.225655069721
2.0181955555555557,855.1658111527346,854.7848628701498,0.20176558360319116,0.2994779712380246,0.19452202876197536,0.3547196604043676,2071.971090107335,5342.242700482102
2.0367111111111114,855.9556622981966,855.5720103005589,0.20256946844128834,0.29976881793709764,0.19423118206290238,0.3547196604043727,2071.460990725355,5361.155096681021
2.055226666666667,856.755276629114,856.3688056911286,0.20339998479133706,0.3000692999557778,0.19393070004422222,0.35471966040437797,2070.933992507691,5379.964441926657
2.0737422222222226,857.5650266155883,857.175623811468,0.20425827152336848,0.30037982933889235,0.19362017066110765,0.35471966040438346,2070.3893727925,5398.672315359945
2.092257777777778,858.3852875902177,857.99284066712,0.205145475929963,0.30070082117855906,0.19329917882144093,0.3547196604043892,2069.82640357347,5417.280277583308
2.110773333333334,859.2164391250769,858.8208357780594,0.2060627555653329,0.30103269427956897,0.19296730572043103,0.3547196604043951,2069.2443503328436,5435.789871286353
2.129288888888889,860.0588659689247,859.65999344549,0.20701128020010326,0.30137587186662895,0.19262412813337104,0.3547196604044012,2068.642470801026,5454.20262188813
2.1478044444444446,860.9129588451352,860.5107036664364,0.2079922338864723,0.30173078233153977,0.1922692176684602,0.3547196604044076,2068.020013646152,5472.520038186276
2.1663200000000002,861.7791152219335,861.3733629417801,0.2090068171285715,0.30209786001843547,0.19190213998156455,0.3547196604044142,2067.3762170969017,5490.743613010345
2.184835555555556,862.6577400954071,862.2483750683808,0.21005624915071733,0.30247754604444005,0.19152245395555995,0.3547196604044211,2066.710307503192,5508.874823879075
2.2033511111111115,863.549246797933,863.1361519468735,0.21114177025082612,0.3028702891511366,0.1911297108488634,0.35471966040442826,2066.02149784284,5526.915133662203
2.221866666666667,864.4540578344714,864.0371144147055,0.21226464422541916,0.3032765465819375,0.1907234534180625,0.3547196604044357,2065.3089861827907,5544.8659912476105
2.2403822222222227,865.3726057445518,864.9516931050512,0.21342616084927496,0.3036967849792262,0.1903032150207738,0.35471966040444336,2064.57195410567,5562.728832214578
2.258897777777778,866.3053339861801,865.8803293289027,0.21462763839229196,0.30413148129496176,0.1898685187050382,0.3547196604044514,2063.809565112731,5580.505079513737
2.2774133333333335,867.2526978372013,866.8234759762344,0.21587042615584343,0.30458112370833595,0.18941887629166404,0.35471966040445974,2063.020963014425,5598.196144154211
2.295928888888889,868.2151653096547,867.7815984318776,0.2171559070115913,0.3050462125443195,0.1889537874556805,0.3547196604044684,2062.2052703194163,5615.803425898206
2.3144444444444447,869.1932180730898,868.7551755019396,0.21848549992781144,0.3055272611876903,0.1884727388123097,0.3547196604044774,2061.361586631521,5633.328313963231
2.3329600000000004,870.187352383136,869.7447003469165,0.21986066246937386,0.3060247969875301,0.18797520301246987,0.35471966040448677,2060.488987063362,5650.77218773193
2.351475555555556,871.1980800123914,870.7506814183531,0.22128289326018893,0.3065393621481408,0.1874606378518592,0.35471966040449654,2059.5865206738417,5668.136417469464
2.3699911111111116,872.2258820215925,871.7736098108178,0.22275354272741726,0.30707144525602553,0.18692855474397443,0.35471966040450675,2058.653330559051,5685.422364448932
2.388506666666667,873.2713457313442,872.8140444988886,0.22427440342088195,0.30762169485830737,0.18637830514169262,0.35471966040451736,2057.6882792693036,5702.631381737979
2.4162800000000004,874.8739238606756,874.4087925827209,0.22665348774150534,0.3084824510122687,0.1855175489877313,0.3547196604045341,2056.178648307112,5728.303610569246
2.4440533333333336,876.5195304811641,876.0462205613483,0.22915501196900892,0.30938750610192706,0.18461249389807297,0.35471966040455194,2054.5913239765796,5753.810301008565
2.4625688888888893,877.6415308032302,877.1625682981678,0.2308936602241513,0.31001655155954877,0.18398344844045122,0.3547196604045645,2053.488077145195,5770.725017205657
2.481084444444445,878.7842236157206,878.2994429676772,0.23269122561093783,0.3106669133207569,0.18333308667924306,0.3547196604045776,2052.3474448687625,5787.569487188848
2.4996000000000005,879.9482770707409,879.4575077781512,0.2345496139920358,0.3113392809294257,0.1826607190705743,0.35471966040459124,2051.168217795739,5804.345035070563
2.5273733333333337,881.7359297565603,881.2358465858149,0.23745556141931146,0.3123906569186792,0.18160934308132085,0.3547196604046129,2049.324269612529,5829.382018767672
2.555146666666667,883.5756508581728,883.0658408085654,0.24050971413779473,0.31349565379700733,0.1805043462029927,0.3547196604046361,2047.386278820392,5854.271356205245
2.5829200000000005,885.4700176266247,884.950049206825,0.24371931865287158,0.3146568933605573,0.17934310663944272,0.35471966040466085,2045.3496472010966,5879.01750035747
2.6106933333333338,887.4217483901713,886.8911709950813,0.2470919699711654,0.3158771234937288,0.17812287650627118,0.3547196604046874,2043.2095553974395,5903.62490835404
2.638466666666667,889.433709992169,888.8920533071152,0.25063562473497963,0.31715922292123455,0.17684077707876544,0.35471966040471586,2040.960954578881,5928.0980476931545
2.66624,891.5089254765767,890.9556989193087,0.25435861409699756,0.31850620586618517,0.1754937941338148,0.35471966040474645,2038.5985582719939,5952.441402540773
2.684755555555556,892.929110419017,892.3678878296118,0.25694452630056086,0.319441792647838,0.174558207352162,0.3547196604047681,2036.957686154024,5968.600427930371
2.703271111111112,894.3798076825127,893.8103555437501,0.25961669041362817,0.3204085854953086,0.17359141450469143,0.3547196604047908,2035.2620835029636,5984.7051164318955
2.721786666666667,895.8620388629824,895.2841173367297,0.26237786781302735,0.32140758347873377,0.17259241652126622,0.3547196604048147,2033.5099981068706,6000.756817252952
2.7403022222222226,897.3768617032343,896.7902246014094,0.26523090147317424,0.32243981519037607,0.17156018480962393,0.3547196604048397,2031.6996259766363,6016.756887182197
2.7588177777777783,898.9275153324772,898.3302641379285,0.2681867182207036,0.32350633766573467,0.1704936623342653,0.35472255671107383,2029.8240335724684,6032.706704151983
2.777333333333334,900.5265382687875,899.9126626246164,0.27128200683942216,0.3246082376498127,0.1693917623501873,0.35474053663364924,2027.859940288665,6048.6078595319705
2.7958488888888895,902.1806641566541,901.5471208826085,0.27452673486726875,0.3257466775904616,0.1682533224095384,0.3547760439943815,2025.8010212952236,6064.4622090234225
2.8143644444444447,903.894256658706,903.2391152354783,0.2779289604600034,0.3269228917227502,0.16707710827724978,0.3548307600106304,2023.6421633469652,6080.271721689614
2.8328800000000003,905.6712852520693,904.9929198234663,0.28149733796390086,0.32813816509187244,0.16586183490812756,0.3549065307922224,2021.3778748902778,6096.038449194151
2.851395555555556,907.5157708039144,906.8125903115598,0.2852411122704416,0.3293938264201233,0.16460617357987667,0.35500537243199387,2019.0022896453074,6111.764520489387
2.8699111111111115,909.4319410475608,908.7023053970503,0.28917013808146863,0.33069124359488267,0.1633087564051173,0.35512948248796933,2016.5091543813903,6127.452144266107
2.888426666666667,911.4242772420064,910.6664931834421,0.29329489848119117,0.3320318160873055,0.16196818391269455,0.3552812542840483,2013.8918171323207,6143.103613945825
2.9069422222222223,913.4974898675965,912.7098830577171,0.2976264951070633,0.33341695552066886,0.16058304447933114,0.3554632927854683,2011.1432334333495,6158.721312904414
2.925457777777778,915.6563698812836,914.8375251744291,0.30217654417857104,0.3348480310981687,0.1591519689018313,0.35567843155407297,2008.2560322953748,6174.307717499584
2.9439733333333336,917.9052989526834,917.0547810128353,0.30695678320139497,0.3363262095644957,0.15767379043550428,0.355929750491732,2005.2227657680062,6189.865392237626
2.9624888888888896,920.2467337975859,919.3672556023262,0.3119777780062427,0.3378519691166435,0.15614803088335655,0.35622059413430923,2002.0367293788388,6205.39696059702
2.981004444444445,922.6765656189972,921.7804740462324,0.31724482709558616,0.3394235991470743,0.15457640085292568,0.35655459009521323,1998.694561000975,6220.905001485171
2.9995200000000004,925.1706425230069,924.2975265749119,0.32274578055334135,0.3410327809699715,0.15296721903002844,0.35693566120301884,1995.2039702768811,6236.391723920183
3.018035555555556,927.6541072258495,926.9018342518981,0.328422837105009,0.3426544551979708,0.15134554480202922,0.3573679542602351,1991.6016345924243,6251.858067616052
3.036551111111111,929.9797924827527,929.489570778362,0.33415239930793394,0.3442401337271685,0.14975986627283153,0.35785523963694704,1987.9659818220027,6267.301971822062
3.0458088888888892,931.038768963234,930.7078096636634,0.3370000570348686,0.34500549455232843,0.1489945054476716,0.3581201655030298,1986.1590209517885,6275.013745038634
3.0550666666666673,932.0236919451729,931.8420634999196,0.3398346655914291,0.34575198300315246,0.1482480169968475,0.35839924253470146,1984.3603403394272,6282.717462610504
3.073582222222223,933.8216445484555,933.8576699074899,0.34551363151376285,0.3472068272499,0.1467931727501,0.35899905638624274,1980.7567930774526,6298.097371392098
3.0920977777777785,935.501835510353,935.6448474261199,0.35129961294313755,0.3486456959497929,0.1453543040502071,0.3596535641501282,1977.0853398898817,6313.437121467849
3.1106133333333337,937.1685988020402,937.3484194809967,0.357269964513776,0.3500960468101022,0.14390395318989782,0.36036329513781884,1973.2968959461014,6328.735384158893
3.1291288888888893,938.8801929399547,939.061403922493,0.36346437843366264,0.35157010938320427,0.14242989061679576,0.3611303804952924,1969.366274839051,6343.99294523441
3.147644444444445,940.6659495330547,940.8318824777168,0.36990441264865803,0.35307254297248397,0.140927457027516,0.361957960615209,1965.2797971281702,6359.211671291853
3.1661600000000005,942.5415918648756,942.6839694032611,0.3766051774224883,0.3546050887283637,0.1393949112716363,0.36284976126245416,1961.0278747035416,6374.393956058715
3.184675555555556,944.5173554366521,944.6312322731916,0.38357999108993496,0.35616847024235504,0.13783152975764493,0.3638098774383354,1956.602056510961,6389.542478147623
3.2031911111111113,946.6015914363462,946.6831874841832,0.39084195421071577,0.357763059371499,0.13623694062850106,0.3648426770872976,1951.9940296838347,6404.660108262405
3.221706666666667,948.8022211893789,948.848067080806,0.39840441961465417,0.35938908800372277,0.13461091199627723,0.3659527593945889,1947.1953212793755,6419.749879309653
3.2402222222222226,951.1272861645833,951.1339074070394,0.4062810993402607,0.3610467077415633,0.13295329225843672,0.3671449337930712,1942.19723042149,6434.814980956459
3.258737777777778,953.5851434894738,953.5489519650304,0.41448605325321325,0.36273600153448365,0.13126399846551634,0.36842420421305355,1936.9908355228395,6449.858763099741
3.277253333333334,956.1845272433333,956.1017898918357,0.42303363246335934,0.3644569805423241,0.1295430194576759,0.36979575174703005,1931.5670301891787,6464.884742319214
3.295768888888889,958.9345573636606,958.8013942674709,0.43193839609624674,0.3662095761919887,0.1277904238080113,0.37126491248081295,1925.9165760313845,6479.8966090893155
3.314284444444445,961.8447242033119,961.6571197031448,0.4412150037556279,0.36799363018407827,0.12600636981592173,0.3728371485796775,1920.0301709026073,6494.898234854644
3.3328000000000007,964.9248569727617,964.6786787952942,0.4508780814422303,0.3698088831143343,0.12419111688566573,0.3745180111561354,1913.8985339785575,6509.893678509095
3.3513155555555563,968.185077255978,967.8761025677659,0.460942057440575,0.37165496180704477,0.12234503819295521,0.37631309356014175,1907.5125098943506,6524.887191933348
3.3698311111111114,971.6357362958606,971.2596849101714,0.4714209643702874,0.37353136531845804,0.12046863468154198,0.37822797375755907,1900.8631943514367,6539.883224247305
3.388346666666667,975.287333836733,974.8399092022114,0.48232820363068984,0.3754374495455833,0.11856255045441674,0.3802681444970686,1893.9420835876003,6554.88642439645
3.4068622222222227,979.1504159783549,978.6273546479093,0.4936762687555743,0.3773724103873783,0.11662758961262173,0.38243893005833884,1886.7412499202128,6569.9016416390305
3.425377777777778,983.2354494275035,982.6325796222784,0.5054764247763359,0.37933526543219453,0.1146647345678055,0.38474538855769774,1879.2535452040672,6584.9339234442505
3.443893333333334,987.552669658184,986.8659793517743,0.5177383416336685,0.381324834184573,0.11267516581542701,0.387192199089157,1871.4728334473673,6599.988510255128
3.4624088888888895,992.111900819558,991.337615476538,0.5304696810505002,0.38333971689696084,0.11066028310303914,0.3897835334227249,1863.3942529585554,6615.070826518002
3.480924444444445,996.9223457967051,996.0570155015171,0.5436756381399807,0.38537827213920894,0.10862172786079106,0.39252291258801497,1855.0145072156904,6630.186467338449
3.4994400000000003,1001.9923456723799,1001.0329408758978,0.5573584414056727,0.3874385933221244,0.10656140667787563,0.3954130494500375,1846.3321821377547,6645.341180096528
3.517955555555556,1007.3291089890857,1006.2731234852517,0.5715168176904502,0.3895184844915277,0.10448151550847226,0.3984556793328793,1837.3480855975083,6660.540840349279
3.5364711111111116,1012.9384126832168,1011.7839717243479,0.5861454319834752,0.39161543582574854,0.10238456417425147,0.4016513818435604,1828.0656028879714,6675.791421372493
3.554986666666667,1018.8242783421067,1017.5702490425618,0.601234315667255,0.3937265994003756,0.10027340059962443,0.4049993982462407,1818.4910595241695,6691.0989567542665
3.573502222222223,1024.9886294690389,1023.6347298851247,0.6167683005638113,0.39584876592558926,0.09815123407441072,0.40849744996197185,1808.6340803650946,6706.46949555641
3.5920177777777784,1031.4309376352896,1029.9778402150089,0.6327264797227437,0.39797834330762877,0.09602165669237125,0.4121415649195704,1798.507931766788,6721.909049711672
3.610533333333334,1038.1478676108266,1036.597292165266,0.6490817189169874,0.40011133802868093,0.09388866197131907,0.41592591943418555,1788.1298315592178,6737.4235335277845
3.629048888888889,1045.1329336138833,1043.4877246644119,0.6658002448666692,0.4022433404683275,0.09175665953167254,0.41984270390464745,1777.5212103358897,6753.01869542263
3.647564444444445,1052.3761804937446,1050.6403638825711,0.6828413368957567,0.40436951539247024,0.08963048460752976,0.42388202076547027,1766.7079071109183,6768.700042313347
3.6660800000000004,1059.8639047440047,1058.042718827391,0.7001571477030153,0.4064845988991883,0.08751540110081168,0.42803182269566803,1755.7202830475353,6784.472757415821
3.6845955555555556,1067.5784305407526,1065.6783281470102,0.7176926759888568,0.40858290312215406,0.0854170968778459,0.4322778980116922,1744.593238827528,6800.341612564874
3.7031111111111117,1075.4979553698904,1073.5265739836943,0.7353859087962695,0.41065832993939694,0.08334167006060307,0.4366039084578235,1733.3661243298186,6816.310876520345
3.7216266666666673,1083.5964781879243,1081.5625774501596,0.7531681447860947,0.4127043948096367,0.08129560519036327,0.44099148233130087,1722.0825334984463,6832.384221058289
3.740142222222223,1091.8438204850231,1089.7571879536083,0.7709645016785623,0.41471426165577696,0.07928573834422306,0.445420363191912,1710.789982349166,6848.564626936437
3.758657777777778,1100.1984672541532,1098.0703195364488,0.7886776319397201,0.4166789172222825,0.07732108277771749,0.4498643438163725,1699.5502420643072,6864.87003482464
3.7771733333333337,1108.607518536818,1106.450163563312,0.8061905183337865,0.4185876024348824,0.07541239756511758,0.45429184627351527,1688.437565094998,6881.332665807402
3.804946666666667,1121.2297290988408,1119.05150311113,0.8318937797109515,0.42133013003050684,0.07266986996949314,0.46084879588259314,1672.1277441828422,6906.32523565995
3.8327200000000006,1133.7291477565057,1131.557877635011,0.8566584734172594,0.42390745192922163,0.07009254807077837,0.467231376045484,1656.413484682174,6931.67321662511
3.851235555555556,1141.9170009306322,1139.7657774217803,0.8725043121014181,0.4255227746659667,0.06847722533403326,0.47134910070184677,1646.358620929703,6948.7654229846075
3.869751111111112,1149.9339528775201,1147.8148592372831,0.8877222535325132,0.4270484063359238,0.06695159366407623,0.47532934228915247,1636.7021848941833,6966.008106718211
3.8882666666666674,1157.7330644750596,1155.6578350338316,0.902233132746021,0.4284784601750482,0.0655215398249518,0.479149345572588,1627.494410138389,6983.396251253089
3.9067822222222226,1165.2681187624712,1163.2480422736896,0.9159621257991005,0.429807541605098,0.06419245839490202,0.4827874337194719,1618.7827756607935,7000.923715862329
3.9252977777777787,1172.4941944798777,1170.5400503550557,0.9288395149147171,0.4310308394408632,0.06296916055913684,0.48622319392227725,1610.61152037883,7018.583261467122
3.943813333333334,1179.368178924991,1177.4902104058021,0.9408012877255557,0.43214421289747,0.061855787102529994,0.4894376071986431,1603.0212628829465,7036.366591150213
3.971586666666667,1188.9302634611854,1187.184640120771,0.9569022477091573,0.43360097963649963,0.06039902036350039,0.4938061911084751,1592.8045137322092,7063.25307498986
3.9993600000000007,1197.4817634159378,1195.8889462276454,0.9706454456563689,0.4347951431642561,0.059204856835743884,0.4975843365089292,1584.0838656405056,7090.361643452397
4.017875555555556,1202.5648017276335,1201.0848762668782,0.9784283058780222,0.4354436474567913,0.05855635254320869,0.49975168232026257,1579.1453072787144,7108.538059535351
4.036391111111112,1207.1175383430798,1205.759507591316,0.9850669947668526,0.43597442248093,0.05802557751906999,0.5016227945541213,1574.9327746635133,7126.783082204558
4.0549066666666675,1211.1111435442745,1209.8847515416576,0.9905309680303975,0.43638915969416986,0.057610840305830156,0.5031849307837427,1571.4656494575115,7145.083430303145
4.059535555555557,1212.0188563043255,1210.8270630312813,0.9917100131464557,0.43647505005467435,0.057524949945325636,0.5035256206544083,1570.7174948008676,7149.665546337892
4.064164444444446,1212.889389938923,1211.7329410025432,0.9928133634606577,0.4365539466153242,0.0574460533846758,0.5038459178359518,1570.0173717400644,7154.25003123188
4.068793333333334,1213.7222744629664,1212.6019624923329,0.9938405399888787,0.4366259254937514,0.05737407450624864,0.5041455729135907,1569.3655842110568,7158.836659361731
4.073422222222223,1214.517022713504,1213.4336967596018,0.994791041158694,0.4366910724408443,0.057308927559155655,0.5044243186668067,1568.7624504830446,7163.425202578024
4.076508148148148,1215.025417333972,1213.9672533865128,0.9953818497589213,0.436730755483997,0.057269244516003015,0.5045983910311697,1568.3875571058318,7166.485181473187
4.079594074074074,1215.5164782793706,1214.4839070394657,0.9959381770974673,0.4367674765515004,0.05723252344849959,0.5047629500007498,1568.0345435669242,7169.545839951263
4.08268,1215.9900404749942,1214.983519318221,0.9964598460969115,0.4368012701477577,0.057198729852242315,0.5049178970042765,1567.703522229534,7172.607108387793
4.0857659259259265,1216.4459306996475,1215.4659474078464,0.996946668348378,0.4368321739260545,0.05716782607394551,0.5050631262218599,1567.3946126471678,7175.668916561634
4.088851851851853,1216.8839661951506,1215.9310433192754,0.9973984421952122,0.4368602291306528,0.05713977086934722,0.5051985234495685,1567.107942779615,7178.731193622302
4.091937777777779,1217.3039530917094,1216.37865307806,0.9978149506352383,0.436885481153312,0.057114518846688,0.5053239647839409,1566.8436503240569,7181.79386805154
4.0950237037037045,1217.7056846474538,1216.8086158867757,0.9981959590980387,0.43690798024499045,0.05709201975500952,0.5054393151061023,1566.6018841254759,7184.85686761837
4.09810962962963,1218.0889393313894,1217.2207633166463,0.9985412132447485,0.43692778244277863,0.05707221755722137,0.5055444263587919,1566.3828055727822,7187.920119326953
4.101195555555556,1218.453478849806,1217.614918642403,0.9988504371292213,0.43694495080328066,0.057055049196719325,0.5056391356476904,1566.186589765632,7190.983549356819
4.1042814814814825,1218.7990463758792,1217.9908965503112,0.9991233324692085,0.4369595570860253,0.0570404429139747,0.5057232632943193,1566.0134259768956,7194.047082995723
4.107367407407408,1219.1253656082763,1218.348503687235,0.9993595806849587,0.43697168412271686,0.05702831587728313,0.5057966112043585,1565.8635163590786,7197.110644566981
4.110453333333334,1219.4321421577351,1218.6875410307725,0.9995588514851008,0.43698142928011574,0.057018570719884275,0.5058589625111511,1565.7370704962111,7200.174157357165
4.11353925925926,1219.7190709786325,1219.0078102354494,0.999720827104246,0.4369889097684522,0.05701109023154776,0.5059100850364888,1565.6342900240513,7203.237543559578
4.116625185185185,1219.985859735473,1219.3091290468262,0.9998452660258871,0.4369942713006687,0.057005728699331286,0.5059497456864072,1565.5553281951736,7206.30072427369
4.118682469135803,1220.152417808559,1219.4994123980662,0.9999073538801792,0.43699675950344835,0.05700324049655165,0.5059697209592622,1565.5159307907172,7208.342691193176
4.12073975308642,1220.3099181899058,1219.68120565431,0.9999528980979848,0.43699846123558306,0.05700153876441695,0.5059844971911132,1565.4870310326244,7210.384507537926
4.122797037037038,1220.4584729196106,1219.8545570409813,0.9999823490271392,0.436999470465921,0.05700052953407898,0.5059941433496113,1565.4683431558933,7212.426149668684
4.123825679012347,1220.5295026104407,1219.9381120187982,0.9999913570127733,0.43699975385474205,0.057000246145257935,0.5059971190630433,1565.4626272029518,7213.446898168757
4.124854320987655,1220.5984963957321,1220.019636816487,0.9999968987362904,0.43699991695644114,0.05700008304355885,0.5059989609649413,1565.4591107418778,7214.467594600382
4.125882962962963,1220.6656490099547,1220.099200697786,0.9999994713081819,0.4369999869422796,0.05700001305772042,0.5059998217393404,1565.4574783347596,7215.488236418167
4.126397283950618,1220.6986388676437,1220.1382813058142,0.999999904708198,0.4369999978433438,0.0570000021566562,0.5059999676430299,1565.457203323875,7215.998536142285
4.12652586419753,1220.7068361008612,1220.1479816913798,0.9999999512089766,0.43699999896659164,0.05700000103340834,0.5059999833438311,1565.4571738171383,7216.1261088260335
4.126654444444444,1220.7150159788193,1220.1576549534805,0.999999979753501,0.4369999996455183,0.05700000035448168,0.5059999929923548,1565.4571557044142,7216.25368060467
4.126783024691358,1220.7231801214568,1220.1673015410074,0.9999999943515384,0.43699999998714,0.05700000001286002,0.5059999979323242,1565.4571464413339,7216.381251475516
4.126911604938272,1220.7313303261242,1220.1769219416246,0.9999999994502178,0.4370000001043352,0.05699999989566479,0.5059999996598386,1565.4571432060031,7216.508821436176
4.126975895061729,1220.7354008186849,1220.1817224860185,0.9999999999635424,0.4370000001158214,0.056999999884178594,0.505999999834074,1565.4571428802767,7216.572606074522
4.1270401851851855,1220.7394686034581,1220.1865166878683,1.00000000002426,0.4370000001170082,0.05699999988299185,0.5059999998548549,1565.4571428417487,7216.636390484567
4.127104475308642,1220.7435338576972,1220.1913046044624,1.0000000000581082,0.43700000011758633,0.05699999988241367,0.505999999866523,1565.4571428202707,7216.700174666103
4.127168765432099,1220.7475966045179,1220.1960862698702,1.0000000000910736,0.43700000011814427,0.056999999881855695,0.5059999998778921,1565.4571427993526,7216.763958618929
4.127297345679013,1220.7557146076665,1220.205630973263,1.000000000102029,0.43700000011801077,0.056999999881989206,0.5059999998819892,1565.457142792401,7216.8915258376555
4.127425925925926,1220.7638227334878,1220.2151510574754,1.000000000102029,0.43700000011762824,0.05699999988237177,0.5059999998823718,1565.457142792401,7217.0190921391595
4.12794024691358,1220.796158535751,1220.252990257308,1.000000000102029,0.43700000011609735,0.05699999988390267,0.5059999998839027,1565.457142792401,7217.52934814189
4.128968888888889,1220.8603863388375,1220.3275618410646,1.000000000102029,0.43700000011303236,0.05699999988696761,0.5059999998869676,1565.457142792401,7218.549815660429
4.132054814814815,1221.0499298637699,1220.543442990342,1.000000000102029,0.4370000001038125,0.056999999896187474,0.5059999998961875,1565.457142792401,7221.610856076619
4.1351407407407414,1221.2355862921952,1220.7496197190458,1.000000000102029,0.4370000000945556,0.0569999999054444,0.5059999999054444,1565.457142792401,7224.671340874521
4.138226666666668,1221.4182173925453,1220.9482350486473,1.000000000102029,0.437000000085262,0.05699999991473797,0.505999999914738,1565.457142792401,7227.731257231771
4.141312592592594,1221.5984951008047,1221.1409598966134,1.000000000102029,0.43700000007593215,0.056999999924067846,0.5059999999240679,1565.457142792401,7230.790595358391
4.1443985185185195,1221.7769433496983,1221.3290971160984,1.000000000102029,0.4370000000665662,0.05699999993343382,0.5059999999334338,1565.457142792401,7233.849347827674
4.147484444444445,1221.9539706770915,1221.513662596425,1.000000000102029,0.4370000000571643,0.05699999994283574,0.5059999999428357,1565.457142792401,7236.907509054663
4.149541728395062,1222.0713598940683,1221.6351208032438,1.000000000102029,0.43700000005087636,0.056999999949123616,0.5059999999491236,1565.457142792401,7238.945952639645
4.15159901234568,1222.1883369940042,1221.755537142102,1.000000000102029,0.43700000004457257,0.05699999995542741,0.5059999999554274,1565.457142792401,7240.984130640619
4.153656296296297,1222.3049666949748,1221.8750725398822,1.000000000102029,0.4370000000382529,0.05699999996174713,0.5059999999617472,1565.457142792401,7243.022042301015
4.155713580246914,1222.4213038263824,1221.993863333729,1.000000000102029,0.43700000003191725,0.056999999968082755,0.5059999999680828,1565.457142792401,7245.059687021758
4.157770864197531,1222.537394840225,1222.1120250292006,1.000000000102029,0.4370000000255657,0.05699999997443431,0.5059999999744343,1565.457142792401,7247.097064337118
4.159828148148148,1222.653279091343,1222.229655483896,1.000000000102029,0.4370000000191982,0.05699999998080179,0.5059999999808018,1565.457142792401,7249.134173894266
4.1618854320987655,1222.768989921976,1222.3468376044148,1.000000000102029,0.4370000000128148,0.056999999987185225,0.5059999999871853,1565.457142792401,7251.171015435941
4.163942716049383,1222.8845555805435,1222.4636416310707,1.000000000102029,0.43700000000641537,0.05699999999358462,0.5059999999935846,1565.457142792401,7253.20758878579
4.166,1222.9999999999998,1222.5801270733941,1.000000000102029,0.437,0.05700000000000001,0.506,1565.457142792401,7255.243893835939
