z,T,t,fs,x,y,w,rhob,p
0.0,556.2445307433206,298.0,0.0,0.2264789895597347,0.2675210104402653,0.3547195616579091,2200.0,2040.0
0.0017533670033670035,572.508504753206,335.47739126098696,3.2616534716934764e-07,0.22647910756682985,0.2675208924331702,0.3547195616579091,2199.9997930341087,2043.6182420774708
0.003506734006734007,587.3711652695251,369.5002224235502,1.1941659299721278e-06,0.22647942161069826,0.26752057838930177,0.3547195616579091,2199.999242250539,2047.394289923265
0.007013468013468014,613.4551172977137,428.71367037629295,6.163413830582588e-06,0.22648121949178807,0.267518780508212,0.3547195616579091,2199.996089049778,2055.369316182779
0.010520202020202022,635.4491148904486,478.1733184480429,1.8214891679434627e-05,0.22648557973393374,0.26751442026606626,0.3547195616579091,2199.988441870591,2063.833150345227
0.014026936026936028,654.0873664069741,519.7646441733033,4.0036421113680054e-05,0.2264934747948977,0.26750652520510226,0.3547195616579091,2199.974595174957,2072.7070681599034
0.017533670033670037,669.9466098600191,554.9281782845846,7.327447800394383e-05,0.22650550037203532,0.2674944996279647,0.3547195616579091,2199.9535042033717,2081.9237353086187
0.021040404040404043,683.4870065896325,584.7875674479769,0.00011863663590324383,0.2265219124664832,0.26747808753351676,0.3547195616579091,2199.924719970092,2091.4255898058336
0.02454713804713805,695.0804770423512,610.2341747807012,0.00017614786414734275,0.2265427201121832,0.2674572798878168,0.3547195616579091,2199.8882266310047,2101.1634306110304
0.028053872053872057,705.0308747830205,631.984963073998,0.00024539386971619853,0.22656777341732046,0.26743222658267957,0.3547195616579091,2199.844287072785,2111.0952027753324
0.03156060606060607,713.5886927304584,650.6232860087521,0.000325706100696775,0.2265968304988442,0.2674031695011558,0.3547195616579091,2199.7933255202747,2121.1849583408407
0.03506734006734007,720.9620076912765,666.6283705576758,0.0004162891773868824,0.2266296035872259,0.2673703964127741,0.3547195616579091,2199.7358466759833,2131.401969978823
0.03857407407407408,727.3247751595013,680.397097347333,0.0005163036614989954,0.2266657889724769,0.2673342110275231,0.3547195616579091,2199.672383199479,2141.7199755716692
0.04208080808080809,732.8232178883642,692.2604015106702,0.0006249173301552195,0.22670508555515437,0.26729491444484565,0.3547195616579091,2199.6034631718453,2152.1165343362777
0.04558754208754209,737.5808168986792,702.4958318078409,0.0007413352881786178,0.22674720574103158,0.2672527942589685,0.3547195616579091,2199.5295909881384,2162.5724777040605
0.0490942760942761,741.7022601993878,711.3373114710353,0.0008648162765841946,0.22679188134153383,0.26720811865846616,0.3547195616579091,2199.451237008953,2173.0714406378033
0.05260101010101011,745.2766020675931,718.9828244242982,0.000994680181304372,0.22683886629040617,0.2671611337095938,0.3547195616579091,2199.3688327958116,2183.599461249345
0.05610774410774411,748.379815948978,725.6005386658359,0.0011303100631291573,0.22688793737814864,0.26711206262185133,0.3547195616579091,2199.282769823085,2194.1446384611
0.05961447811447812,751.0768756130723,731.3337352347214,0.0012711508806953556,0.22693889378999185,0.26706110621000817,0.35471956165790913,2199.1934002883036,2204.696839048318
0.06312121212121213,753.4234650244147,736.3048122949615,0.0014167063116554373,0.22699155595579143,0.2670084440442086,0.35471956165790913,2199.10103912927,2215.2474467415896
0.06662794612794615,755.4673928993635,740.6185644630507,0.0015665345717123177,0.2270457640373486,0.2669542359626514,0.35471956165790913,2199.0059666770526,2225.7891471968474
0.07013468013468015,757.2497701129945,744.3648880100851,0.0017202438001482792,0.22710137625888804,0.26689862374111195,0.35471956165790913,2198.9084315840714,2236.315743586788
0.07364141414141415,758.8059950025913,747.62102675364,0.0018774873645109938,0.22715826720828625,0.2668417327917138,0.35471956165790913,2198.8086538034736,2246.821998362863
0.07714814814814816,760.1665818288369,750.4534471838529,0.0020379592967327345,0.22721632618585305,0.26678367381414697,0.35471956165790913,2198.7068274851104,2257.3034974059105
0.08065488215488217,761.3578602707935,752.9194118541279,0.0022013899821172293,0.22727545564460072,0.26672454435539933,0.35471956165790913,2198.6031237110615,2267.756533347147
0.08416161616161617,762.4025681958191,755.0683053996396,0.002367542164261819,0.22733556974481905,0.26666443025518094,0.35471956165790913,2198.4976930306834,2278.1780053170787
0.08766835016835017,763.3203556012753,756.9427563995846,0.002536207291908224,0.22739659303236065,0.26660340696763934,0.35471956165790913,2198.390667778686,2288.565332782384
0.09117508417508419,764.1282142426996,758.5795897380341,0.0027072022105998354,0.2274584592416778,0.2665415407583222,0.35471956165790913,2198.2821641744226,2298.9163814718554
0.0946818181818182,764.840844805526,760.0106374779575,0.002880366188046886,0.22752111021959512,0.2664788897804049,0.35471956165790913,2198.172284209419,2309.229399682031
0.0981885521885522,765.4709713708883,761.2634310641539,0.0030555582540873387,0.2275844949629038,0.2664155050370962,0.35471956165790913,2198.061117335285,2319.5029634993048
0.1016952861952862,766.0296112424625,762.3617935643255,0.003232654831982914,0.22764856876136091,0.2663514312386391,0.3547195616579092,2197.948741966757,2329.7359296849468
0.10520202020202021,766.5263068453157,763.326347386611,0.0034115476361185957,0.227713292437074,0.266286707562926,0.3547195616579092,2197.835226815698,2339.927395148231
0.10870875420875423,766.9693253076073,764.1749502858976,0.0035921418110611346,0.22777863167120996,0.26622136832879,0.3547195616579092,2197.720632071947,2350.076662085501
0.11221548821548823,767.3658304374054,764.9230703472965,0.00377435428776974,0.22784455640926943,0.2661554435907305,0.3547195616579092,2197.6050104463693,2360.183207993489
0.11572222222222223,767.7220310682546,765.584108905351,0.003958112334139477,0.22791104033667148,0.26608895966332846,0.3547195616579092,2197.4884080906027,2370.246659876828
0.11922895622895624,768.0433091364466,766.1696789395425,0.004143352278732348,0.22797806041699764,0.2660219395830023,0.3547195616579092,2197.370865406904,2380.2667720653453
0.12273569023569025,768.3343303453337,766.689845317285,0.004330018388342605,0.22804559648589331,0.2659544035141067,0.3547195616579092,2197.25241776038,2390.24340713865
0.12624242424242427,768.5991398479895,767.1533322858674,0.0045180618818432125,0.228113630894276,0.265886369105724,0.3547195616579092,2197.133096104747,2400.176519525869
0.12974915824915828,768.8412450237457,767.5677028065576,0.004707440064502905,0.2281821481951301,0.2658178518048699,0.35471956165790924,2197.0129275316417,2410.066141408708
0.1332558922558923,769.0636871243851,767.9395136472565,0.0048981155686086695,0.22825113486876297,0.265748865131237,0.35471956165790924,2196.891935752479,2419.912370607862
0.1367626262626263,769.2691033123256,768.2744495809412,0.005090055687755873,0.22832057908195,0.26567942091805,0.35471956165790924,2196.770141520875,2429.715360177319
0.1402693602693603,769.4597803981155,768.5774395566858,0.005283231793568735,0.22839047047690328,0.2656095295230967,0.35471956165790924,2196.647563002761,2439.4753094694042
0.14377609427609428,769.637701401618,768.8527573030716,0.005477618824886241,0.22846079998645855,0.2655392000135414,0.35471956165790924,2196.524216100517,2449.1924564663345
0.1472828282828283,769.8045859052072,769.1041084780077,0.005673194840596413,0.22853155967228966,0.26546844032771033,0.35471956165790924,2196.40011473672,2458.86707120238
0.1507895622895623,769.9619250338498,769.3347061843555,0.005869940628331947,0.2286027425833343,0.2653972574166657,0.35471956165790924,2196.2752711024395,2468.499450125111
0.15429629629629632,770.1110117826253,769.5473364191049,0.006067839362160337,0.2286743426319457,0.2653256573680543,0.3547195616579093,2196.149695874451,2478.089911265198
0.15780303030303033,770.2529673140933,769.744414808458,0.006266876303220928,0.22874635448558273,0.26525364551441727,0.3547195616579093,2196.0233984051933,2487.6387901023118
0.16130976430976435,770.3887637635521,769.9280357964432,0.006467038537988643,0.22881877347211327,0.2651812265278867,0.3547195616579093,2195.8963868888513,2497.1464360302016
0.16481649831649836,770.5192440175962,770.1000152960046,0.0066683147494884494,0.2288915954970394,0.2651084045029606,0.3547195616579093,2195.768668506532,2506.61320933749
0.16832323232323235,770.6451388687769,770.2619276749813,0.006870695017354158,0.22896481697115828,0.2650351830288417,0.3547195616579093,2195.6402495531306,2516.0394786322095
0.17182996632996633,770.7670818951432,770.4151378317921,0.00707417064312788,0.22903843474735522,0.2649615652526448,0.3547195616579093,2195.5111355481936,2525.4256186481102
0.17533670033670035,770.8856223667925,770.5608290142246,0.007278733997639578,0.2291124460653854,0.26488755393461455,0.35471956165790935,2195.381331332755,2534.7720083793088
0.17884343434343436,771.0012364412289,770.7000269471735,0.0074843783876962534,0.22918684850364196,0.26481315149635803,0.35471956165790935,2195.250841153933,2544.0790294972494
0.18235016835016837,771.1143368744504,770.8336207595379,0.007691097939653513,0.22926163993703183,0.26473836006296814,0.35471956165790935,2195.1196687388065,2553.347065010327
0.1858569023569024,771.2252814445027,770.9623811350876,0.00789888749774368,0.22933681850019078,0.2646631814998092,0.35471956165790935,2194.987817358932,2562.5764981319903
0.1893636363636364,771.3343802580996,771.0869760555352,0.008107742535299502,0.22941238255536406,0.26458761744463594,0.35471956165790935,2194.855289886673,2571.767711327895
0.19287037037037041,771.4419020882691,771.2079844550726,0.008317659077244856,0.2294883306643634,0.26451166933563663,0.35471956165790935,2194.722088844385,2580.9210855167485
0.1963771043771044,771.5480798713693,771.3259080632222,0.00852863363242759,0.22956466156408478,0.2644353384359152,0.3547195616579094,2194.5882164473546,2590.0369994029916
0.19988383838383839,771.6531154748068,771.4411816761094,0.008740663134548387,0.2296413741451368,0.2643586258548632,0.3547195616579094,2194.45367464128,2599.1158289225214
0.2033905723905724,771.757183832053,771.5541820644231,0.008953744890596,0.229718467433184,0.26428153256681597,0.3547195616579094,2194.3184651349934,2608.1579467852407
0.2068973063973064,771.860436528759,771.6652356987248,0.00916787653583633,0.2297959405726622,0.2642040594273378,0.3547195616579094,2194.1825894290178,2617.163722100494
0.21040404040404043,771.9630049126847,771.7746254488353,0.009383055994522918,0.22987379281256332,0.2641262071874367,0.3547195616579094,2194.0460488405038,2626.1335200733793
0.21391077441077444,772.0650027905328,771.8825963932717,0.009599281445601349,0.2299520234940272,0.26404797650597284,0.35471956165790947,2193.9088445249895,2635.067701761609
0.21741750841750845,772.1665287664335,771.9893608567054,0.009816551292772138,0.2300306320395104,0.2639693679604896,0.35471956165790947,2193.7709774953946,2643.9666238840177
0.22092424242424247,772.2676682695794,772.0951027777894,0.010034864138357035,0.2301096179433309,0.2638903820566691,0.35471956165790947,2193.6324486386065,2652.8306386730833
0.22443097643097645,772.3684953122288,772.199981496161,0.0102542187604839,0.23018898076341363,0.2638110192365864,0.35471956165790947,2193.4932587299545,2661.660093764867
0.22793771043771044,772.4690740138374,772.3041350356632,0.010474614093167002,0.23026872011408334,0.26373127988591666,0.35471956165790947,2193.353408445853,2670.455332120739
0.23144444444444445,772.5694599223506,772.4076829506339,0.010696049208913103,0.23034883565977163,0.26365116434022834,0.35471956165790947,2193.2128983748357,2679.216691976012
0.23495117845117847,772.6697011595749,772.5107287932544,0.010918523303530808,0.230429327109521,0.26357067289047903,0.3547195616579095,2193.071729027197,2687.9445068113255
0.23845791245791248,772.7698394139879,772.613362252273,0.011142035682861666,0.23051019421218377,0.2634898057878162,0.3547195616579095,2192.9299008434095,2696.6391053431894
0.2419646464646465,772.8699108012503,772.7156610067533,0.01136658575118732,0.2305914367522283,0.26340856324777173,0.3547195616579095,2192.7874142014825,2705.300811530615
0.2454713804713805,772.9699466099969,772.8176923327129,0.011592173001098353,0.230673054546073,0.263326945453927,0.3547195616579095,2192.644269423389,2713.929944595203
0.24897811447811452,773.0699739481599,772.9195144954975,0.011818797004637801,0.23075504743888253,0.2632449525611175,0.3547195616579095,2192.5004667806857,2722.5268190524166
0.25248484848484853,773.1700163030487,773.0211779563865,0.012046457405556215,0.23083741530176527,0.2631625846982347,0.3547195616579096,2192.3560064994285,2731.0917447521288
0.25599158249158255,773.2700940266627,773.1227264181404,0.012275153912535952,0.23092015802932211,0.26307984197067785,0.3547195616579096,2192.2108887644713,2739.6250269267607
0.25949831649831656,773.3702247561857,773.2241977309262,0.0125048862932606,0.23100327553750064,0.2629967244624994,0.3547195616579096,2192.065113723228,2748.126966245626
0.2630050505050505,773.4704237782965,773.3256246772125,0.012735654369221335,0.23108676776171602,0.26291323223828394,0.3547195616579096,2191.9186814889704,2756.5978588742487
0.26651178451178453,773.5707043447768,773.4270356517519,0.012967458011165825,0.23117063465520468,0.2628293653447953,0.35471956165790963,2191.7715921437148,2765.037996537646
0.27001851851851855,773.6710779459082,773.528455250636,0.013200297135107413,0.23125487618758006,0.26274512381241993,0.35471956165790963,2191.623845740754,2773.447666586689
0.27352525252525256,773.7715545472889,773.6299047815432,0.013434171698822878,0.23133949234356577,0.2626605076564343,0.35471956165790963,2191.475442306881,2781.827152066803
0.2770319865319866,773.8721427949453,773.7314027056909,0.013669081698776236,0.23142448312188246,0.2625755168781176,0.35471956165790963,2191.3263818443393,2790.176731788366
0.2805387205387206,773.9728501929746,773.8329650206064,0.013905027167414092,0.23150984853426937,0.2624901514657307,0.35471956165790963,2191.17666433254,2798.4966803982857
0.2840454545454546,774.073683257382,773.9346055916158,0.014142008170785057,0.23159558860462298,0.26240441139537707,0.3547195616579097,2191.0262897295725,2806.7872684522954
0.28755218855218856,774.1746476492942,774.0363364389029,0.014380024806441825,0.23168170336823798,0.26231829663176204,0.3547195616579097,2190.875257973535,2815.0487624875896
0.2910589225589226,774.2757482903072,774.1381679860733,0.014619077201589871,0.23176819287113753,0.26223180712886246,0.3547195616579097,2190.723568983711,2823.2814250954825
0.2945656565656566,774.3769894623526,774.2401092753684,0.014859165511451288,0.2318550571694812,0.2621449428305188,0.3547195616579097,2190.5712226616047,2831.485514993825
0.2980723905723906,774.4783748941587,774.3421681539953,0.01510028991781644,0.23194229632904104,0.262057703670959,0.35471956165790974,2190.4182188918635,2839.6612870989584
0.3015791245791246,774.5799078360951,774.4443514354307,0.015342450627759532,0.23202991042473672,0.2619700895752633,0.35471956165790974,2190.2645575430884,2847.8089925970203
0.30508585858585857,774.6815911249618,774.546665039055,0.015585647872497317,0.23211789954022283,0.26188210045977717,0.35471956165790974,2190.1102384685632,2855.928879014459
0.3085925925925926,774.7834272400643,774.6491141110162,0.015829881906372842,0.23220626376752107,0.261793736232479,0.35471956165790974,2189.955261506896,2864.021190287631
0.3120993265993266,774.8854183517467,774.7517031288381,0.016075153005948417,0.23229500320669205,0.26170499679330794,0.3547195616579098,2189.799626482597,2872.0861668313805
0.3156060606060606,774.9875663633928,774.8544359919557,0.016321461469194137,0.23238411796554181,0.2616158820344582,0.3547195616579098,2189.6433332065903,2880.1240456065348
0.3191127946127946,775.0898729477699,774.9573161000603,0.01656880761475989,0.23247360815935836,0.2615263918406417,0.3547195616579098,2189.48638147668,2888.1350601862446
0.32261952861952864,775.192339578477,775.0603464208957,0.016817191781320472,0.23256347391067467,0.2614365260893253,0.3547195616579098,2189.3287710779614,2896.119440821131
0.32612626262626265,775.2949675571541,775.1635295489172,0.017066614326984732,0.23265371534905507,0.2613462846509449,0.35471956165790985,2189.1705017832,2904.077414503203
0.32963299663299667,775.3977580370203,775.2668677560426,0.017317075628760795,0.2327443326109017,0.26125566738909833,0.35471956165790985,2189.0115733531675,2912.0092050285243
0.3331397306397307,775.5007120432373,775.3703630355591,0.01756857608207045,0.23283532583927866,0.2611646741607213,0.35471956165790985,2188.8519855369514,2919.915033058617
0.3366464646464647,775.603830490522,775.4740171401035,0.017821116100306768,0.23292669518375217,0.2610733048162478,0.35471956165790985,2188.6917380722366,2927.7951161805972
0.3401531986531987,775.707114198381,775.5778316145153,0.01807469611442959,0.23301844080024417,0.26098155919975585,0.3547195616579099,2188.530830685561,2935.6496689660353
0.34365993265993267,775.810563904285,775.6818078242518,0.018329316572594442,0.23311056285089796,0.26088943714910207,0.3547195616579099,2188.36926309255,2943.478903028559
0.3471666666666667,775.914180275062,775.7859469799629,0.018584977939810846,0.23320306150395465,0.26079693849604535,0.3547195616579099,2188.2070349981354,2951.2830270801956
0.3506734006734007,776.0179639167488,775.8902501587422,0.018841680697626463,0.23329593693363887,0.2607040630663611,0.3547195616579099,2188.0441460967545,2959.0622469864775
0.3541801346801347,776.1219153831084,775.9947183225036,0.019099425343834242,0.23338918932005284,0.2606108106799471,0.35471956165790997,2187.8805960725367,2966.816765820319
0.3576868686868687,776.2260351829931,776.0993523338706,0.01935821239219974,0.2334828188490777,0.2605171811509223,0.35471956165790997,2187.716384599475,2974.5467839146845
0.36119360269360273,776.3303237867098,776.2041529699127,0.019618042372206414,0.23357682571228133,0.26042317428771866,0.35471956165790997,2187.5515113415904,2982.2524989140766
0.36470033670033675,776.4347816315226,776.309120934021,0.019878915828816873,0.23367121010683195,0.26032878989316804,0.35471956165791,2187.38597595308,2989.9341058248465
0.36820707070707076,776.5394091264067,776.4142568661744,0.020140833322248274,0.23376597223541698,0.260234027764583,0.35471956165791,2187.2197780784627,2997.591797064374
0.3717138047138048,776.6442066561578,776.5195613518114,0.02040379542776037,0.23386111230616624,0.26013888769383375,0.35471956165791,2187.0529173527107,3005.2257625091174
0.3752205387205388,776.7491745849425,776.625034929499,0.02066780273545492,0.23395663053257937,0.2600433694674206,0.35471956165791,2186.8853934013796,3012.836189541574
0.3787272727272728,776.8543132593661,776.7306780975601,0.020932855850085128,0.23405252713345698,0.259947472866543,0.3547195616579101,2186.7172058407277,3020.423263096165
0.3822340067340068,776.959623011122,776.8364913198,0.021198955390874297,0.23414880233283492,0.2598511976671651,0.3547195616579101,2186.5483542778306,3027.9871657040753
0.38574074074074083,777.0651041592804,776.9424750304535,0.021466101991342627,0.23424545635992175,0.2597545436400782,0.3547195616579101,2186.3788383106935,3035.528077537072
0.3892474747474748,777.1707570122658,777.0486296384603,0.021734296299141465,0.23434248944903865,0.25965751055096137,0.35471956165791013,2186.2086575283533,3043.046176450321
0.3927542087542088,777.2765818695632,777.1549555311577,0.02200353897589427,0.23443990183956198,0.25956009816043796,0.35471956165791013,2186.037811510982,3050.541638024234
0.3962609427609428,777.3825790231913,777.2614530774702,0.02227383069704372,0.23453769377586783,0.25946230622413213,0.35471956165791013,2185.8662998299815,3058.0146356053615
0.3997676767676768,777.4887487589758,777.368122630664,0.02254517215170438,0.2346358655072789,0.25936413449272105,0.35471956165791013,2185.69412204808,3065.465340346365
0.40327441077441084,777.5950913576468,777.4749645307264,0.022817564042520545,0.2347344172880129,0.25926558271198713,0.3547195616579102,2185.521277719419,3072.893921245081
0.40678114478114485,777.7016070957856,777.5819791064204,0.02309100708552874,0.23483334937713282,0.2591666506228672,0.3547195616579102,2185.3477663896424,3080.3005451827094
0.41028787878787887,777.808296246643,777.6891666770575,0.023365502010024602,0.23493266203849894,0.25906733796150105,0.3547195616579102,2185.1735875959816,3087.685376961145
0.4137946127946128,777.915159080844,777.7965275540297,0.023641049558433762,0.2350323555407219,0.25896764445927806,0.35471956165791024,2184.9987408673355,3095.0485793394655
0.41730134680134684,778.0221958669958,777.9040620421304,0.023917650486186486,0.23513243015711752,0.25886756984288245,0.35471956165791024,2184.8232257243512,3102.390313069622
0.42080808080808085,778.1294068722121,778.0117704406952,0.024195305561595756,0.23523288616566249,0.25876711383433754,0.35471956165791024,2184.6470416795005,3109.7107369313203
0.42431481481481487,778.2367923625649,778.1196530445869,0.02447401556573865,0.23533372384895163,0.25866627615104837,0.3547195616579103,2184.4701882371573,3117.0100077661405
0.4278215488215489,778.3443526034731,778.2277101450436,0.02475378129234078,0.23543494349415606,0.25856505650584394,0.3547195616579103,2184.2926648936686,3124.2882805108998
0.43132828282828284,778.4520878600392,778.335942030412,0.02503460354766356,0.2355365453929823,0.25846345460701775,0.3547195616579103,2184.114471137427,3131.5457082302864
0.43483501683501685,778.5599983973368,778.4443489867787,0.025316483150394253,0.23563852984163255,0.25836147015836747,0.35471956165791035,2183.93560644894,3138.782442148777
0.43834175084175087,778.6680844806598,778.5529312985153,0.025599420931538528,0.23574089714076596,0.25825910285923404,0.35471956165791035,2183.756070300899,3145.9986316818618
0.4418484848484849,778.7763463757356,778.6616892487486,0.025883417734315513,0.23584364759546034,0.25815635240453966,0.35471956165791035,2183.5758621582454,3153.194424466588
0.4453552188552189,778.8847843489092,778.7706231197649,0.026168474414055124,0.23594678151517534,0.2580532184848247,0.3547195616579104,2183.394981478236,3160.3699663914517
0.4488619528619529,778.9933986673017,778.8797331933588,0.026454591838097653,0.2360502992137159,0.2579497007862841,0.3547195616579104,2183.2134277105056,3167.52540162564
0.4523686868686869,779.102189598945,778.9890197511346,0.026741770885695453,0.23615420100919687,0.2578457989908032,0.3547195616579104,2183.0312002971314,3174.660872647651
0.45587542087542093,779.211157412899,779.0984830747645,0.02703001244791666,0.2362584872240079,0.2577415127759921,0.35471956165791046,2182.848298672692,3181.7765202733035
0.45938215488215495,779.320302379351,779.208123446212,0.027319317427550876,0.23636315818477963,0.25763684181522034,0.35471956165791046,2182.6647222643296,3188.8724836831507
0.46288888888888896,779.429624769702,779.3179411479234,0.027609686739016707,0.23646821422235004,0.25753178577764996,0.35471956165791046,2182.480470491805,3195.94890044932
0.466395622895623,779.5391248566386,779.4279364629938,0.02790112130827115,0.23657365567173166,0.25742634432826833,0.3547195616579105,2182.29554276756,3203.0059065617793
0.46990235690235693,779.6488029141975,779.5381096753082,0.028193622072720678,0.2366794828720796,0.2573205171279204,0.3547195616579105,2182.10993849677,3210.043636454067
0.47340909090909095,779.7586592178175,779.6484610696639,0.02848718998113407,0.23678569616665968,0.2572143038333403,0.3547195616579106,2181.9236570774,3217.0622230284716
0.47691582491582496,779.8686940443856,779.7589909318759,0.028781825993556817,0.2368922959028178,0.2571077040971822,0.3547195616579106,2181.73669790026,3224.0617976806984
0.480422558922559,779.9789076722763,779.8696995488668,0.029077531081227143,0.23699928243194934,0.25700071756805065,0.3547195616579106,2181.549060349058,3231.042490324025
0.483929292929293,780.0893003813843,779.9805872087438,0.029374306226493552,0.23710665610946946,0.25689334389053053,0.35471956165791063,2181.3607438004515,3238.0044294129566
0.487436026936027,780.1998724531525,780.091654200866,0.02967215242273389,0.23721441729478365,0.25678558270521634,0.35471956165791063,2181.1717476241,3244.9477419664013
0.490942760942761,780.3106241705955,780.2029008159003,0.029971070674275804,0.23732256635125912,0.25667743364874085,0.35471956165791063,2180.9820711827147,3251.8725535903714
0.494449494949495,780.4215558183204,780.3143273458711,0.030271061996318658,0.2374311036461965,0.25656889635380353,0.3547195616579107,2180.7917138321072,3258.7789885002253
0.49795622895622904,780.532667682543,780.4259340842013,0.030572127414856785,0.237540029550802,0.256459970449198,0.3547195616579107,2180.600674921241,3265.6671695424575
0.501462962962963,780.643960051102,780.5377213257491,0.030874267966604103,0.2376493444401602,0.2563506555598398,0.35471956165791074,2180.408953792277,3272.537218216054
0.5049696969696971,780.7554332134715,780.649689366837,0.03117748469892001,0.23775904869320727,0.25624095130679275,0.35471956165791074,2180.2165497806195,3279.389254693418
0.508476430976431,780.8670874607698,780.7618385052795,0.03148177866973653,0.23786914269270454,0.25613085730729546,0.35471956165791074,2180.0234622149665,3286.22339784088
0.511983164983165,780.9789230857681,780.8741690404036,0.031787150947486756,0.23797962682521268,0.2560203731747873,0.3547195616579108,2179.829690417351,3293.0397652387987
0.515489898989899,781.0909403828975,780.9866812730692,0.03209360261103442,0.2380905014810661,0.25590949851893385,0.3547195616579108,2179.6352337031867,3299.838473201268
0.518996632996633,781.2031396482538,781.0993755056844,0.03240113474960471,0.2382017670543481,0.2557982329456519,0.35471956165791085,2179.4400913813156,3306.619636795433
0.522503367003367,781.3155211796021,781.2122520422196,0.03270974846271619,0.23831342394286606,0.2556865760571339,0.35471956165791085,2179.2442627540436,3313.3833698604326
0.526010101010101,781.4280852763807,781.3253111882184,0.03301944486011384,0.23842547254812735,0.2555745274518727,0.35471956165791085,2179.047747117192,3320.1297850259666
0.5295168350168351,781.5408322397029,781.4385532508081,0.03333022506170325,0.2385379132753154,0.25546208672468457,0.3547195616579109,2178.850543760132,3326.858993730507
0.5330235690235691,781.6537623723606,781.5519785387075,0.0336420901974858,0.23865074653326634,0.25534925346673365,0.3547195616579109,2178.6526519658296,3333.571106239156
0.536530303030303,781.7668759788243,781.6655873622342,0.03395504140749496,0.238763972734446,0.255236027265554,0.35471956165791096,2178.454071010884,3340.26623166116
0.5400370370370371,781.8801733652451,781.7793800333101,0.03426907984173361,0.23887759229492703,0.255122407705073,0.35471956165791096,2178.2548001655696,3346.944477967089
0.5435437710437712,781.9936548394558,781.8933568654663,0.034584206660112256,0.2389916056343667,0.2550083943656333,0.354719561657911,2178.0548386938735,3353.605952005685
0.5470505050505051,782.1073207109705,782.007518173848,0.0349004230323884,0.23910601317598504,0.25489398682401493,0.354719561657911,2177.854185853534,3360.2507595203974
0.5505572390572391,782.2211712909854,782.1218642752166,0.035217730138106695,0.239220815346543,0.254779184653457,0.354719561657911,2177.6528408960794,3366.879005165595
0.5540639730639731,782.3352068923786,782.2363954879537,0.03553612916654019,0.23933601257632126,0.25466398742367874,0.3547195616579111,2177.450803066866,3373.4907925224848
0.5575707070707072,782.4494278297103,782.3511121320628,0.03585562131663235,0.2394516052990993,0.2545483947009007,0.3547195616579111,2177.248071605112,3380.08622411472
0.5610774410774412,782.5638344192225,782.4660145291714,0.036176207796940085,0.23956759395213484,0.2544324060478652,0.35471956165791113,2177.0446457439357,3386.665401423727
0.5645841750841751,782.6784269788382,782.581103002533,0.03649788982557759,0.23968397897614324,0.25431602102385675,0.35471956165791113,2176.840524710393,3393.2284249037402
0.5680909090909092,782.7932058281617,782.6963778770281,0.03682066863016109,0.23980076081527793,0.2541992391847221,0.3547195616579112,2176.6357077255075,3399.775393996561
0.5715976430976432,782.9081712884779,782.811839479165,0.03714454544775434,0.23991793991711033,0.25408206008288964,0.3547195616579112,2176.430194004309,3406.3064071460453
0.5751043771043771,783.0233236827518,782.9274881370814,0.03746952152481511,0.24003551673261064,0.25396448326738935,0.35471956165791124,2176.223982755868,3412.821561812323
0.5786111111111112,783.1386633356282,783.0433241805447,0.03779559811714229,0.24015349171612876,0.25384650828387123,0.35471956165791124,2176.0170731833255,3419.320954485758
0.5821178451178451,783.2541905734314,783.1593479409529,0.038122776489823894,0.24027186532537534,0.25372813467462463,0.3547195616579113,2175.809464483929,3425.804680700654
0.5856245791245791,783.3699057241649,783.2755597513351,0.038451057917185824,0.24039063802140337,0.2536093619785966,0.3547195616579113,2175.6011558490636,3432.272835048712
0.5891313131313132,783.4858091175106,783.3919599463521,0.03878044368274139,0.2405098102685898,0.25349018973141024,0.35471956165791135,2175.392146464286,3438.7255111922436
0.5926380471380472,783.6019010848296,783.5085488622966,0.03911093507914148,0.24062938253461758,0.25337061746538236,0.35471956165791135,2175.1824355093527,3445.1628018771476
0.5961447811447812,783.7181819591607,783.6253268370941,0.03944253340812561,0.240749355290458,0.253250644709542,0.3547195616579114,2174.972022158255,3451.5847989456515
0.5996515151515152,783.834652075221,783.7422942103026,0.03977523998047359,0.24086972901035303,0.25313027098964697,0.3547195616579114,2174.7609055792477,3457.99159334883
0.6031582491582492,783.9513117694066,783.859451323114,0.04010905611595789,0.24099050417179832,0.2530094958282017,0.35471956165791146,2174.549084934877,3464.383275158897
0.6066649831649833,784.0681613797913,783.9767985183537,0.040443983143296676,0.24111168125552598,0.252888318744474,0.35471956165791146,2174.3365593820154,3470.7599335812797
0.6101717171717173,784.1852012461277,784.0943361404815,0.04078002240010752,0.24123326074548804,0.25276673925451193,0.3547195616579115,2174.1233280718857,3477.121656966483
0.6136784511784512,784.3024317098472,784.212064535592,0.04111717523286185,0.24135524312883977,0.2526447568711602,0.3547195616579115,2173.9093901500964,3483.4685328217415
0.6171851851851853,784.4198531140606,784.3299840514154,0.041455442996839884,0.24147762889592353,0.2525223711040765,0.3547195616579116,2173.6947447566627,3489.800647822473
0.6206919191919194,784.5374658035589,784.4480950373177,0.041794827056086295,0.24160041854025263,0.25239958145974734,0.3547195616579116,2173.4793910260396,3496.1180878235236
0.6241986531986533,784.655270124813,784.5663978443015,0.04213532878336643,0.24172361255849564,0.2522763874415044,0.35471956165791163,2173.263328087149,3502.420937870227
0.6277053872053873,784.7732664259756,784.6848928250071,0.04247694956012321,0.2418472114504605,0.2521527885495395,0.35471956165791163,2173.0465550634062,3508.7092822092663
0.6312121212121213,784.8914550568817,784.8035803337126,0.042819690776434556,0.24197121571907954,0.25202878428092046,0.3547195616579117,2172.8290710727474,3514.9832042993517
0.6347188552188553,785.0098363690499,784.9224607263354,0.04316355383097132,0.2420956258703938,0.2519043741296062,0.3547195616579117,2172.610875227656,3521.242786821711
0.6382255892255893,785.1284107156838,785.0415343604329,0.04350854013095597,0.24222044241353846,0.25177955758646153,0.35471956165791174,2172.391966635189,3527.4881116904075
0.6417323232323233,785.247178451673,785.1608015952039,0.04385465109212164,0.24234566586072778,0.25165433413927224,0.35471956165791174,2172.172344397002,3533.719260062475
0.6452390572390573,785.3661399335954,785.2802627914888,0.044201888138671784,0.24247129672724066,0.25152870327275934,0.3547195616579118,2171.952007609378,3539.9363123478847
0.6487457912457912,785.4852955197186,785.399918311772,0.044550252703240444,0.2425973355314062,0.25140266446859383,0.3547195616579118,2171.7309553632494,3546.139348219343
0.6522525252525253,785.6046455700026,785.5197685201824,0.04489974622685287,0.24272378279458937,0.25127621720541066,0.35471956165791185,2171.509186744224,3552.3284466219266
0.6557592592592594,785.7241904461016,785.6398137824954,0.04525037015888678,0.24285063904117715,0.25114936095882284,0.3547195616579119,2171.286700832608,3558.503685782548
0.6592659932659933,785.8439305113666,785.7600544661342,0.04560212595703405,0.24297790479856454,0.2510220952014354,0.3547195616579119,2171.0634967034352,3564.665143219274
0.6627727272727273,785.9638661308486,785.8804909401715,0.04595501508726295,0.24310558059714102,0.25089441940285895,0.35471956165791196,2170.8395734264855,3570.8128957504814
0.6662794612794614,786.0839976713014,786.0011235753313,0.04630903902378075,0.24323366697027696,0.250766333029723,0.35471956165791196,2170.61493006631,3576.9470195038616
0.6697861952861954,786.2043255011854,786.1219527439912,0.046664199248996924,0.24336216445431016,0.2506378355456898,0.354719561657912,2170.389565682258,3583.067589925279
0.6732929292929294,786.3248499906709,786.2429788201838,0.04702049725348665,0.24349107358853295,0.250508926411467,0.354719561657912,2170.1634793284948,3589.174681787484
0.6767996632996633,786.4455715116422,786.3642021795998,0.04737793453595497,0.24362039491517898,0.25037960508482104,0.3547195616579121,2169.936670054028,3595.268369198678
0.6803063973063974,786.5664904377027,786.4856231995897,0.047736512603201164,0.24375012897941034,0.2502498710205896,0.35471956165791213,2169.7091369027285,3601.3487256109447
0.6838131313131315,786.6876071441789,786.6072422591669,0.04809623297008367,0.24388027632930512,0.2501197236706949,0.35471956165791213,2169.4808789133544,3607.4158238285395
0.6873198653198654,786.808922008126,786.7290597390102,0.048457097159485416,0.2440108375158445,0.2499891624841555,0.3547195616579122,2169.251895119571,3613.4697360160476
0.6908265993265994,786.9304354083342,786.851076021467,0.04881910670227958,0.2441418130929006,0.2498581869070994,0.3547195616579122,2169.022184549973,3619.510533706409
0.6943333333333335,787.0521477253341,786.973291490556,0.049182263137295665,0.24427320361722418,0.2497267963827758,0.35471956165791224,2168.7917462281084,3625.5382878088135
0.6978400673400674,787.1740593414038,787.0957065319714,0.04954656801128604,0.2444050096484325,0.2495949903515675,0.3547195616579123,2168.5605791724956,3631.5530686164693
0.7013468013468014,787.2961706405764,787.2183215330857,0.049912022878892834,0.24453723174899739,0.2494627682510026,0.3547195616579123,2168.3286823966478,3637.5549458142514
0.7048535353535355,787.4184820086482,787.3411368829542,0.050278629302615264,0.24466987048423322,0.2493301295157668,0.35471956165791235,2168.096054909092,3643.54398848622
0.7083602693602694,787.5409938331867,787.4641529723186,0.05064638885277721,0.2448029264222855,0.2491970735777145,0.3547195616579124,2167.8626957133906,3649.5202651230275
0.7118670033670034,787.6637065035407,787.5873701936125,0.051015303107495295,0.2449364001341191,0.2490635998658809,0.3547195616579124,2167.628603808161,3655.4838436292066
0.7153737373737374,787.7866204108501,787.7107889409648,0.0513853736526472,0.24507029219350687,0.24892970780649312,0.35471956165791246,2167.393778187096,3661.4347913303386
0.7188804713804715,787.9097359480577,787.8344096102059,0.05175660208184038,0.2452046031770183,0.24879539682298168,0.3547195616579125,2167.158217838983,3667.3731749801163
0.7223872053872055,788.0330535099204,787.9582325988727,0.05212898999638112,0.24533933366400834,0.24866066633599168,0.3547195616579125,2166.921921747725,3673.2990607672928
0.7258939393939394,788.156573493023,788.0822583062143,0.05250253900524391,0.24547448423660628,0.24852551576339374,0.3547195616579126,2166.6848888923582,3679.21251432252
0.7294006734006735,788.2802962957923,788.2064871331993,0.05287725072504117,0.2456100554797048,0.2483899445202952,0.35471956165791263,2166.447118247073,3685.1136007250866
0.7329074074074076,788.4042223185123,788.330919482521,0.05325312677999318,0.24574604798094915,0.24825395201905084,0.35471956165791263,2166.208608781232,3691.0023845095484
0.7364141414141416,788.528351963342,788.4555557586062,0.05363016880189851,0.2458824623307265,0.2481175376692735,0.3547195616579127,2165.9693594593896,3696.878929672255
0.7399208754208757,788.6526856343322,788.5803963676221,0.054008378430104614,0.24601929912215503,0.24798070087784496,0.35471956165791274,2165.7293692413086,3702.74329967778
0.7434276094276097,788.7772237374473,788.7054417174847,0.05438775731147873,0.24615655895107377,0.24784344104892622,0.35471956165791274,2165.488637081982,3708.595557465249
0.7469343434343436,788.9019666805858,788.8306922178687,0.05476830710037916,0.2462942424160319,0.2477057575839681,0.3547195616579128,2165.247161931648,3714.4357654545774
0.7504410774410777,789.026914873604,788.9561482802156,0.05515002945862678,0.24643235011827866,0.24756764988172134,0.35471956165791285,2165.0049427358103,3720.2639855526036
0.7539478114478116,789.1520687283428,789.0818103177463,0.05553292605547675,0.24657088266175298,0.24742911733824705,0.35471956165791285,2164.7619784352546,3726.08027915914
0.7574545454545456,789.277428658654,789.2076787454706,0.05591699856759072,0.24670984065307344,0.24729015934692658,0.3547195616579129,2164.518267966068,3731.884707172927
0.7609612794612796,789.402995080433,789.3337539802,0.056302248679009036,0.24684922470152829,0.2471507752984717,0.35471956165791296,2164.2738102596536,3737.6773299974957
0.7644680134680135,789.5287684116504,789.4600364405611,0.05668867808112346,0.24698903541906553,0.24701096458093447,0.354719561657913,2164.0286042427524,3743.4582075469507
0.7679747474747476,789.6547490723894,789.5865265470096,0.057076288472649964,0.24712927342028307,0.24687072657971693,0.354719561657913,2163.782648837455,3749.2273992516575
0.7714814814814815,789.7809374848855,789.7132247218454,0.05746508155960189,0.24726993932241897,0.24673006067758102,0.3547195616579131,2163.5359429612226,3754.984964063854
0.7749882154882155,789.907334073569,789.8401313892294,0.057855059055263336,0.24741103374534196,0.24658896625465807,0.35471956165791313,2163.2884855269044,3760.730960463172
0.7784949494949496,790.0339392651132,789.9672469752019,0.0582462226801628,0.24755255731154172,0.24644744268845828,0.3547195616579132,2163.04027544275,3766.4654464620817
0.7820016835016836,790.1607534884857,790.0945719077008,0.05863857416204702,0.24769451064611947,0.24630548935388052,0.3547195616579132,2162.7913116124314,3772.188479611256
0.7855084175084176,790.2877771750053,790.222106616584,0.05903211523585513,0.24783689437677875,0.24616310562322125,0.35471956165791324,2162.5415929350543,3777.9001170048546
0.7890151515151516,790.4150107584029,790.3498515336514,0.05942684764369302,0.247979709133816,0.24602029086618402,0.3547195616579133,2162.291118305178,3783.6004152857336
0.7925218855218856,790.5424546748901,790.4778070926701,0.05982277313480799,0.2481229555501114,0.2458770444498886,0.35471956165791335,2162.03988661283,3789.2894306505773
0.7960286195286197,790.6701093632322,790.6059737294008,0.06021989346556347,0.2482666342611198,0.2457333657388802,0.35471956165791335,2161.7878967435227,3794.967218854957
0.7995353535353537,790.7979752648297,790.7343518816275,0.060618210399414243,0.24841074590486173,0.24558925409513827,0.3547195616579134,2161.535147578269,3800.63383521832
0.8030420875420876,790.9260528238061,790.8629419891887,0.06101772570688167,0.24855529112191432,0.24544470887808567,0.35471956165791346,2161.281637993596,3806.289334628901
0.8065488215488217,791.0543424871055,790.9917444940123,0.06141844116552931,0.2487002705554027,0.24529972944459733,0.3547195616579135,2161.0273668615646,3811.933771548573
0.8100555555555558,791.1828447045984,791.1207598401526,0.06182035855993862,0.24884568485099093,0.24515431514900907,0.3547195616579136,2160.7723330497806,3817.5672000176173
0.8135622895622897,791.3115599291978,791.2499884738319,0.06222347968168504,0.24899153465687374,0.24500846534312629,0.3547195616579136,2160.516535421413,3823.1896736594385
0.8170690235690237,791.4404886169871,791.3794308434836,0.06262780632931428,0.24913782062376746,0.24486217937623253,0.35471956165791363,2160.2599728352075,3828.801245685208
0.8205757575757577,791.5696312273597,791.5090873998022,0.06303334030831878,0.2492845434049019,0.2447154565950981,0.3547195616579137,2160.002644145501,3834.4019688984404
0.8240824915824917,791.6989882231725,791.6389585957945,0.06344008343111446,0.24943170365601178,0.24456829634398822,0.35471956165791374,2159.7445482022395,3839.991895699513
0.8275892255892257,791.8285600709133,791.769044886838,0.06384803751701772,0.24957930203532844,0.24442069796467158,0.3547195616579138,2159.4856838509872,3845.5710780901163
0.8310959595959597,791.9583472408867,791.8993467307434,0.06425720439222275,0.2497273392035715,0.24427266079642848,0.35471956165791385,2159.2260499329464,3851.1395676776497
0.8346026936026937,792.0883502074157,792.0298645878231,0.0646675858897789,0.24987581582394094,0.24412418417605905,0.35471956165791385,2158.9656452849686,3856.6974156795545
0.8381094276094276,792.2185694490646,792.1605989209653,0.06507918384956865,0.2500247325621089,0.2439752674378911,0.3547195616579139,2158.7044687395696,3862.244672927588
0.8416161616161617,792.3490054488834,792.2915501957162,0.06549200011828547,0.2501740900862117,0.2438259099137883,0.35471956165791396,2158.4425191249425,3867.781389872044
0.8451228956228958,792.4796586946766,792.4227188803692,0.06590603654941234,0.2503238890668422,0.24367611093315777,0.354719561657914,2158.1797952649745,3873.3076165859134
0.8486296296296297,792.6105296792974,792.5541054460616,0.06632129500320014,0.25047413017704195,0.24352586982295807,0.3547195616579141,2157.9162959792548,3878.82340276899
0.8521363636363637,792.7416189009739,792.6857103668816,0.06673777734664689,0.25062481409229337,0.2433751859077066,0.35471956165791413,2157.652020083095,3884.3287977519326
0.8556430976430978,792.8729268636642,792.8175341199849,0.06715548545347681,0.25077594149051274,0.24322405850948722,0.3547195616579142,2157.3869663875353,3889.8238505002582
0.8591498316498317,793.0044540774496,792.9495771857218,0.06757442120412,0.2509275130520423,0.24307248694795763,0.35471956165791424,2157.121133699363,3895.308609618299
0.8626565656565657,793.1362010589669,793.0818400477767,0.06799458648569241,0.25107952945964346,0.24292047054035654,0.35471956165791424,2156.8545208211217,3900.7831233531047
0.8661632996632997,793.2681683318825,793.2143231933213,0.06841598319197618,0.25123199139848923,0.24276800860151082,0.3547195616579143,2156.587126551126,3906.2474395982936
0.8696700336700337,793.4003564274165,793.3470271131815,0.06883861322340043,0.25138489955615756,0.24261510044384246,0.35471956165791435,2156.318949683471,3911.701605897861
0.8731767676767677,793.5327658849179,793.4799523020207,0.06926247848702241,0.2515382546226247,0.24246174537737533,0.3547195616579144,2156.0499890080496,3917.1456694499416
0.8766835016835017,793.6653972524999,793.6130992585408,0.06968758089650925,0.251692057290258,0.24230794270974196,0.35471956165791446,2155.780243310555,3922.5796771105265
0.8801902356902358,793.7982510877379,793.7464684857025,0.07011392237212005,0.25184630825381016,0.2421536917461898,0.3547195616579145,2155.5097113725024,3928.0036753971362
0.8836969696969699,793.9313279584399,793.8800604909673,0.07054150484068858,0.2520010082104124,0.24199899178958764,0.3547195616579146,2155.238391971233,3933.4177104924565
0.8872037037037038,794.0646284434953,794.0138757865612,0.07097033023560657,0.2521561578595685,0.24184384214043148,0.35471956165791463,2154.966283879926,3938.82182824793
0.8907104377104378,794.1981531338105,794.1479148897674,0.07140040049680772,0.25231175790314947,0.24168824209685055,0.3547195616579147,2154.6933858676116,3944.2160741873136
0.8942171717171719,794.3319026333403,794.2821783232439,0.07183171757075213,0.25246780904538724,0.2415321909546127,0.35471956165791474,2154.419696699176,3949.6004935101955
0.8977239057239058,794.4658775602271,794.4166666153753,0.07226428341041177,0.25262431199287005,0.24137568800712997,0.3547195616579148,2154.1452151353765,3954.975131095481
0.9012306397306398,794.6000785480544,794.551380300657,0.07269809997525654,0.25278126745453683,0.2412187325454632,0.35471956165791485,2153.8699399328434,3960.340031504845
0.9047373737373738,794.7345062472338,794.6863199201189,0.07313316923124136,0.2529386761416729,0.24106132385832704,0.3547195616579149,2153.593869844096,3965.6952389861485
0.9082441077441079,794.8691613265324,794.8214860217901,0.07356949315079406,0.25309653876790567,0.24090346123209433,0.35471956165791496,2153.3170036175434,3971.040797476834
0.911750841750842,795.0040444747623,794.9568791612104,0.07400707371280452,0.25325485604920017,0.2407451439507998,0.354719561657915,2153.039339997495,3976.376750607288
0.9152575757575759,795.1391564026425,795.0924999019926,0.07444591290261474,0.2534136287038562,0.24058637129614382,0.3547195616579151,2152.7608777241667,3981.7031417041803
0.9187643097643099,795.274497844858,795.2283488164409,0.0748860127120104,0.2535728574525045,0.24042714254749548,0.35471956165791513,2152.4816155336844,3987.020013793785
0.922271043771044,795.4100695623331,795.3644264862315,0.07532737513921363,0.2537325430181049,0.24026745698189508,0.3547195616579152,2152.2015521580915,3992.3274096052755
0.9257777777777779,795.5458723447424,795.5007335031627,0.07577000218887732,0.2538926861259437,0.24010731387405634,0.35471956165791524,2151.9206863253494,3997.6253715740067
0.9292845117845119,795.6819070132874,795.6372704699791,0.07621389587208122,0.25405328750363226,0.23994671249636768,0.3547195616579153,2151.6390167593413,4002.9139418447853
0.932791245791246,795.8181744237636,795.7740380012812,0.07665905820632973,0.2542143478811069,0.23978565211889308,0.35471956165791535,2151.3565421798753,4008.1931622751245
0.93629797979798,795.9546754699518,795.9110367245269,0.07710549121555187,0.25437586799062795,0.2396241320093721,0.3547195616579154,2151.0732613026803,4013.4630744384954
0.939804713804714,796.0914110873672,796.0482672811355,0.07755319693010325,0.2545378485667809,0.2394621514332191,0.35471956165791546,2150.7891728394097,4018.7237196275782
0.9433114478114479,796.2283822574055,796.1857303277054,0.07800217738677089,0.2547002903464784,0.23929970965352163,0.3547195616579155,2150.5042754976344,4023.9751388575046
0.946818181818182,796.3655900119292,796.3234265373569,0.07845243462878032,0.2548631940689623,0.2391368059310377,0.35471956165791557,2150.2185679808404,4029.2173728691178
0.950324915824916,796.5030354383385,796.4613566012144,0.0789039707058059,0.25502656047580785,0.23897343952419217,0.3547195616579157,2149.9320489884217,4034.4504621322344
0.9538316498316499,796.640719685184,796.5995212300429,0.07935678767398463,0.25519039031092833,0.23880960968907172,0.35471956165791574,2149.644717215671,4039.6744468489273
0.957338383838384,796.7786439683745,796.7379211560553,0.07981088759593323,0.25535468432058134,0.2386453156794186,0.3547195616579158,2149.3565713537687,4044.8893669568274
0.960845117845118,796.9168095780477,796.8765571349089,0.08026627254076955,0.255519443253377,0.238480556746623,0.35471956165791585,2149.067610089773,4050.0952621324545
0.9643518518518519,797.0552178861732,797.0154299479132,0.08072294458413853,0.2556846678602865,0.2383153321397135,0.3547195616579159,2148.777832106596,4055.2921717945865
0.967858585858586,797.1938703549667,797.1545404044709,0.08118090580824289,0.25585035889465374,0.23814964110534628,0.35471956165791596,2148.4872360829922,4060.4801351076667
0.97136531986532,797.3327685462049,797.2938893447806,0.08164015830187948,0.25601651711220846,0.23798348288779148,0.354719561657916,2148.1958206935305,4065.6591909852664
0.974872053872054,797.4719141315328,797.4334776428265,0.08210070416048176,0.25618314327108166,0.2378168567289183,0.3547195616579161,2147.903584608567,4070.8293780936056
0.978378787878788,797.6113089038766,797.573306209693,0.08256254548616904,0.25635023813182306,0.23764976186817693,0.3547195616579162,2147.610526494219,4075.9907348551505
0.981885521885522,797.750954790074,797.7133759972369,0.0830256843878032,0.25651780245742195,0.23748219754257807,0.35471956165791624,2147.316645012322,4081.1432994522875
0.9853922558922561,797.8908538648554,797.8536880021613,0.08349012298105377,0.2566858370133306,0.2373141629866694,0.3547195616579163,2147.0219388203936,4086.2871098310925
0.9888989898989902,798.0310083663194,797.9942432705368,0.08395586338847244,0.25685434256749134,0.2371456574325087,0.35471956165791635,2146.726406571583,4091.4222037052155
0.9924057239057242,798.1714207130586,798.1350429028236,0.08442290773957777,0.257023319890367,0.23697668010963302,0.3547195616579164,2146.4300469146206,4096.548618559881
0.9959124579124582,798.3120935231128,798.2760880594528,0.0848912581709513,0.2571927697549759,0.23680723024502404,0.3547195616579165,2146.132858493753,4101.666391656033
0.9994191919191922,798.4530296349382,798.4173799670368,0.08536091682634696,0.2573626929369314,0.23663730706306857,0.35471956165791657,2145.834839948676,4106.775560034638
1.0029259259259262,798.5942321306042,798.5589199252826,0.08583188585681403,0.25753309021448617,0.2364669097855138,0.3547195616579166,2145.535989914458,4111.876160521163
1.0064326599326603,798.7357043614483,798.7007093146958,0.08630416742083674,0.25770396236858295,0.23629603763141702,0.3547195616579167,2145.236307021447,4116.968229730259
1.0099393939393941,798.8774499764398,798.842749605176,0.08677776368449118,0.2578753101829112,0.23612468981708876,0.3547195616579168,2144.9357898951753,4122.051804070667
1.0134461279461282,799.0194729535276,798.9850423656125,0.0872526768216225,0.25804713444397126,0.23595286555602873,0.35471956165791685,2144.634437156245,4127.126919750369
1.0169528619528623,799.161777634272,799.127589274612,0.08772890901404391,0.25821943594114627,0.2357805640588537,0.3547195616579169,2144.332247420203,4132.193612782032
1.0204595959595961,799.3043687620842,799.2703921325042,0.08820646245176114,0.2583922154667836,0.23560778453321646,0.354719561657917,2144.0292192973952,4137.251918988751
1.0239663299663302,799.447251524426,799.4134528747916,0.08868533933322453,0.2585654738162856,0.23543452618371447,0.35471956165791707,2143.7253513928117,4142.301874010145
1.0274730639730643,799.5904315993467,799.5567735872394,0.08916554186561249,0.25873921178821263,0.23526078821178736,0.3547195616579171,2143.420642305903,4147.343513308838
1.030979797979798,799.7339152067658,799.7003565228258,0.0896470722651504,0.25891343018439833,0.23508656981560166,0.3547195616579172,2143.115090630379,4152.376872177361
1.034486531986532,799.8777091649308,799.8442041208068,0.09012993275746928,0.2590881298100792,0.23491187018992077,0.3547195616579173,2142.808694953982,4157.401985745534
1.037993265993266,800.0218209525121,799.9883190281895,0.09061412557800894,0.25926331147404064,0.23473668852595933,0.35471956165791735,2142.5014538582286,4162.418888988361
1.0415,800.1662587768171,800.1327041239547,0.09109965297247179,0.259438975988781,0.234561024011219,0.3547195616579174,2142.1933659181245,4167.4276167345
1.045006734006734,800.3110316486229,800.2773625464142,0.0915865171973337,0.2596151241706965,0.23438487582930348,0.3547195616579175,2141.8844297018404,4172.428203675369
1.048513468013468,800.4561494641493,800.4222977241579,0.09207472052041939,0.25979175684028943,0.2342082431597106,0.35471956165791757,2141.574643770343,4177.420684374941
1.052020202020202,800.6016230946915,800.5675134111062,0.09256426522155088,0.25996887482240266,0.2340311251775973,0.3547195616579177,2141.2640066769877,4182.405093280292
1.0555269360269361,800.7474644844377,800.71301372627,0.09305515359327896,0.2601464789464845,0.2338535210535155,0.35471956165791774,2140.9525169670533,4187.381464732992
1.0590336700336702,800.8936867569753,800.8588031989045,0.09354738794170891,0.260324570046887,0.23367542995311297,0.3547195616579178,2140.640173177217,4192.349832981389
1.0613714927048263,800.9913869369539,800.9561592678423,0.09387629308417542,0.2604435684039435,0.23355643159605652,0.35471956165791785,2140.431468768387,4195.657649131867
1.0637093153759822,801.0892673946943,801.053647663199,0.09420579816093803,0.26056278381809744,0.23343721618190252,0.3547195616579179,2140.222383675535,4198.961933597107
1.0660471380471381,801.187333045585,801.1512701006426,0.09453590386659125,0.26068221654065427,0.23331778345934578,0.35471956165791796,2140.0129174579106,4202.262696473285
1.068384960718294,801.2855891214226,801.2490284163158,0.09486661089911784,0.26080186682414497,0.23319813317585503,0.354719561657918,2139.803069672614,4205.559947847722
1.0707227833894502,801.3840411897673,801.346924577031,0.09519791996007046,0.26092173492239246,0.23307826507760754,0.35471956165791807,2139.59283987448,4208.853697801114
1.073060606060606,801.4826951741959,801.4449606913989,0.09552983175476892,0.26104182109058244,0.23295817890941758,0.3547195616579181,2139.382227615952,4212.143956409881
1.0753984287317622,801.5815573754462,801.5431390219775,0.09586234699251513,0.2611621255853413,0.2328378744146587,0.3547195616579182,2139.1712324469495,4215.430733748626
1.077736251402918,801.6806344934382,801.641461998533,0.09619546638682644,0.26128264866482076,0.23271735133517923,0.35471956165791824,2138.959853914713,4218.714039892732
1.0800740740740742,801.7799336501466,801.7399322325143,0.09652919065569038,0.2614033905887897,0.23259660941121035,0.3547195616579183,2138.7480915636506,4221.993884921085
1.0824118967452303,801.8794624132836,801.8385525328466,0.09686352052184113,0.26152435161873433,0.23247564838126566,0.35471956165791835,2138.5359449351554,4225.270278918925
1.0847497194163862,801.979228820741,801.9373259231561,0.09719845671306128,0.26164553201796753,0.23235446798203246,0.3547195616579184,2138.3234135674174,4228.543231980853
1.0870875420875423,802.0792414057199,802.0362556605471,0.09753399996251033,0.26176693205174745,0.23223306794825252,0.35471956165791846,2138.1104969952175,4231.812754213964
1.0894253647586982,802.1795092224573,802.1353452560527,0.09787015100908232,0.261888551987407,0.23211144801259298,0.3547195616579185,2137.8971947496943,4235.078855741135
1.0917631874298543,802.2800418724407,802.2345984968906,0.09820691059779567,0.26201039209449495,0.23198960790550505,0.35471956165791857,2137.6835063581016,4238.341546704462
1.0941010101010102,802.3808495309721,802.334019470652,0.09854427948021771,0.26213245264492946,0.23186754735507056,0.3547195616579186,2137.469431343538,4241.600837268846
1.0956595585484477,802.4482127150997,802.4003954704061,0.09876953093930767,0.2622139489491686,0.2317860510508314,0.3547195616579187,2137.326499639112,4243.77181356618
1.0972181069958848,802.5157062482634,802.4668493670516,0.0989950537591907,0.26229554343213585,0.23170445656786418,0.3547195616579187,2137.1833957446324,4245.94128613103
1.0987766554433223,802.5833336045354,802.5333826290389,0.09922084816801918,0.262377236176377,0.23162276382362298,0.35471956165791874,2137.0401195153277,4248.109257996966
1.1003352038907597,802.6510983888805,802.5999968031243,0.09944691439557539,0.2624590272650277,0.23154097273497232,0.3547195616579188,2136.8966708053904,4250.275732204634
1.1018937523381969,802.7190043405762,802.6666935187982,0.0996732526733511,0.2625409167818419,0.23145908321815808,0.35471956165791885,2136.7530494679295,4252.440711802308
1.1034523007856343,802.787055336564,802.7334744929348,0.099899863234632,0.2626229048112228,0.23137709518877722,0.35471956165791885,2136.6092553549156,4254.6041998464625
1.1050108492330717,802.8552553947126,802.8003415346716,0.10012674631458622,0.26270499143825454,0.23129500856174548,0.3547195616579189,2136.4652883171248,4256.766199402342
1.106569397680509,802.9236086769749,802.8672965505211,0.10035390215035875,0.2627871767487365,0.23121282325126355,0.35471956165791896,2136.3211482040765,4258.926713544557
1.1081279461279463,802.9921194924129,802.9343415497182,0.10058133098117042,0.2628694608292191,0.23113053917078094,0.35471956165791896,2136.1768348639766,4261.085745357682
1.1096864945753835,803.0607923000692,803.0014786498048,0.10080903304842294,0.2629518437670418,0.23104815623295816,0.354719561657919,2136.032348143645,4263.243297936862
1.111245043022821,803.129631711657,803.0687100824533,0.10103700859580951,0.2630343256503733,0.23096567434962667,0.35471956165791907,2135.8876878884475,4265.39937438844
1.1128035914702583,803.1986424940432,803.1360381995244,0.1012652578694313,0.26311690656825326,0.23088309343174673,0.35471956165791907,2135.742853942223,4267.55397783058
1.1143621399176957,803.2678295714952,803.2034654793584,0.10149378111792054,0.2631995866106372,0.2308004133893628,0.3547195616579191,2135.597846147203,4269.707111393901
1.115920688365133,803.337198027659,803.2709945332929,0.10172257859256995,0.26328236586844317,0.23071763413155683,0.3547195616579192,2135.4526643439317,4271.858778222126
1.1174792368125703,803.4067531072385,803.3386281123967,0.10195165054746909,0.26336524443360115,0.23063475556639884,0.35471956165791924,2135.307308371179,4274.008981472721
1.1190377852600077,803.4765002173407,803.4063691144111,0.10218099723964748,0.2634482223991048,0.23055177760089518,0.35471956165791924,2135.1617780658476,4276.157724317554
1.120596333707445,803.5464449284528,803.4742205908807,0.10241061892922514,0.2635312998590659,0.23046870014093407,0.3547195616579193,2135.016073262881,4278.305009943544
1.1221548821548823,803.6165929750141,803.5421857544562,0.10264051587957064,0.26361447690877166,0.23038552309122837,0.35471956165791935,2134.8701937951605,4280.450841553314
1.1237134306023198,803.6869502555447,803.6102679863469,0.10287068835746649,0.26369775364474424,0.23030224635525573,0.35471956165791935,2134.724139493401,4282.595222365847
1.1252719790497572,803.7575228322947,803.6784708438947,0.10310113663328259,0.263781130164804,0.230218869835196,0.3547195616579194,2134.5779101860408,4284.738155617133
1.1268305274971944,803.828316930372,803.746798068238,0.10333186098115756,0.2638646065681346,0.2301353934318654,0.35471956165791946,2134.4315056991277,4286.879644560813
1.1283890759446316,803.8993389363118,803.81525359203,0.10356286167918796,0.2639481829553518,0.2300518170446482,0.3547195616579195,2134.2849258561973,4289.019692468816
1.129947624392069,803.9705953960474,803.8838415471658,0.10379413900962593,0.2640318594285749,0.22996814057142514,0.3547195616579195,2134.138170478149,4291.158302631985
1.1315061728395064,804.0420930122422,803.9525662724764,0.10402569325908452,0.26411563609150074,0.22988436390849926,0.35471956165791957,2133.9912393831137,4293.295478360689
1.1330647212869438,804.1138386409465,804.0214323213289,0.10425752471875165,0.2641995130494817,0.22980048695051827,0.3547195616579196,2133.8441323863217,4295.431222985426
1.134623269734381,804.1858392875394,804.0904444690794,0.10448963368461164,0.26428349040960536,0.2297165095903947,0.3547195616579197,2133.696849299956,4297.5655398573945
1.1361818181818184,804.258102101922,804.1596077203103,0.10472202045767526,0.2643675682807777,0.22963243171922235,0.3547195616579197,2133.549389933014,4299.698432349061
1.1377403666292558,804.3306343729273,804.2289273157797,0.10495468534421673,0.2644517467738092,0.22954825322619077,0.35471956165791974,2133.401754091151,4301.829903854684
1.139298915076693,804.4034435219148,804.2984087390078,0.10518762865601883,0.26453602600150344,0.22946397399849652,0.3547195616579198,2133.2539415765277,4303.9599577908275
1.1408574635241304,804.4765370955237,804.3680577224144,0.10542085071062492,0.264620406078748,0.22937959392125198,0.35471956165791985,2133.105952187649,4306.088597596835
1.1424160119715678,804.5499227575586,804.4378802529197,0.10565435183159735,0.2647048871226082,0.2292951128773918,0.35471956165791985,2132.9577857192016,4308.215826735265
1.1439745604190052,804.6236082799908,804.5078825769157,0.10588813234878246,0.26478946925242297,0.22921053074757705,0.3547195616579199,2132.809441961883,4310.341648692296
1.1455331088664424,804.6976015330549,804.5780712045052,0.10612219259858076,0.2648741525899024,0.2291258474100976,0.35471956165791996,2132.660920702232,4312.466066978085
1.1470916573138796,804.7719104744384,804.6484529129134,0.10635653292422223,0.2649589372592277,0.2290410627407723,0.35471956165792,2132.5122217224557,4314.589085127084
1.148650205761317,804.8465431375552,804.7190347489587,0.1065911536760453,0.26504382338715177,0.22895617661284823,0.35471956165792,2132.363344800249,4316.7107066983035
1.1502087542087545,804.9215076189092,804.7898240304834,0.10682605521177904,0.2651288111031015,0.2288711888968985,0.35471956165792007,2132.214289708617,4318.830935275521
1.1517673026561919,804.9968120645601,804.8608283466306,0.10706123789682744,0.2652139005392806,0.2287860994607194,0.3547195616579201,2132.0650562156957,4320.949774467447
1.153325851103629,805.0724646557057,804.9320555568647,0.10729670210455446,0.2652990918307727,0.2287009081692273,0.3547195616579202,2131.91564408457,4323.067227907811
1.1548843995510663,805.1484735934127,805.0035137886298,0.10753244821656874,0.26538438511564433,0.22861561488435567,0.35471956165792023,2131.7660530730923,4325.183299255395
1.1564429479985037,805.2248470825266,805.075211433542,0.10776847662300673,0.26546978053504744,0.22853021946495253,0.35471956165792023,2131.616282933704,4327.297992194009
1.158001496445941,805.301593314808,805.147157142028,0.10800478772281215,0.2655552782333205,0.22844472176667951,0.3547195616579203,2131.4663334132592,4329.41131043238
1.1595600448933785,805.3787204513462,805.2193598163137,0.10824138192401127,0.2656408783580879,0.2283591216419121,0.35471956165792035,2131.3162042528465,4331.523257703976
1.1611185933408157,805.4562366043142,805.291828601692,0.1084782596439813,0.2657265810603574,0.22827341893964262,0.3547195616579204,2131.1658951876234,4333.633837766759
1.1626771417882529,805.5341498181319,805.3645728759986,0.10871542130971108,0.26581238649461414,0.22818761350538588,0.35471956165792046,2131.0154059466463,4335.7430544028575
1.1642356902356903,805.6124680501241,805.4376022372437,0.1089528673580513,0.26589829481891136,0.22810170518108866,0.35471956165792046,2130.8647362527154,4337.850911418157
1.1657942386831277,805.691199150752,805.5109264893621,0.10919059823595327,0.26598430619495667,0.22801569380504333,0.3547195616579205,2130.7138858222206,4339.957412641815
1.1673527871305651,805.7703508435237,805.584555626058,0.10942861440069387,0.2660704207881935,0.2279295792118065,0.35471956165792057,2130.5628543649996,4342.062561925688
1.1689113355780023,805.8499307046792,805.658499812743,0.10966691632008478,0.26615663876787676,0.22784336123212318,0.3547195616579206,2130.411641584207,4344.166363143684
1.1704698840254395,805.9299461427635,805.7327693665836,0.10990550447266435,0.2662429603071425,0.22775703969285752,0.3547195616579207,2130.2602471761884,4346.268820191029
1.172028432472877,806.010404378203,805.8073747346954,0.11014437934786975,0.26632938558306957,0.22767061441693046,0.3547195616579207,2130.108670830376,4348.36993698344
1.1735869809203143,806.091312423003,805.8823264705429,0.1103835414461877,0.26641591477673493,0.22758408522326512,0.35471956165792073,2129.956912229189,4350.469717456239
1.1751455293677517,806.172677060692,805.9576352086294,0.1106229912792823,0.2665025480732593,0.2274974519267407,0.3547195616579208,2129.8049710479545,4352.568165563361
1.176704077815189,806.2545048266358,806.0333116375776,0.11086272937009747,0.2665892856618446,0.22741071433815538,0.35471956165792085,2129.652846954843,4354.665285276298
1.1782626262626263,806.3368019888502,806.10936647173,0.11110275625293338,0.2666761277358014,0.2273238722641986,0.3547195616579209,2129.500539610817,4356.7610805829645
1.1798211747100638,806.4195745294375,806.1858104214168,0.11134307247349386,0.26676307449256614,0.22723692550743382,0.35471956165792096,2129.348048669605,4358.855555486486
1.181379723157501,806.5028281267687,806.2626541620591,0.11158367858890507,0.2668501261337079,0.22714987386629207,0.35471956165792096,2129.1953737776857,4360.948714003912
1.1829382716049384,806.586568138536,806.3399083022973,0.1118245751677031,0.26693728286492385,0.22706271713507617,0.354719561657921,2129.0425145742993,4363.040560164874
1.1844968200523758,806.6707995857862,806.417583351348,0.11206576278978961,0.2670245448960232,0.22697545510397685,0.35471956165792107,2128.889470691473,4365.131098010166
1.1860553684998132,806.7555271380512,806.4956896858093,0.11230724204635503,0.2671119124408995,0.2268880875591005,0.3547195616579211,2128.736241754071,4367.220331590279
1.1876139169472504,806.8407550996708,806.5742375161497,0.11254901353976846,0.2671993857174908,0.2268006142825092,0.3547195616579212,2128.582827379865,4369.308264963873
1.1891724653946876,806.9264873974067,806.6532368531193,0.11279107788343389,0.2672869649477276,0.22671303505227242,0.35471956165792123,2128.429227179623,4371.3949021962035
1.190731013842125,807.0127275694282,806.7326974743345,0.1130334357016125,0.2673746503574684,0.2266253496425316,0.35471956165792123,2128.275440757225,4373.480247357513
1.1922895622895624,807.0994787557441,806.8126288912865,0.11327608762921129,0.26746244217642356,0.22653755782357643,0.3547195616579213,2128.1214677097955,4375.56430452137
1.1938481107369998,807.1867436901404,806.8930403170262,0.11351903431153815,0.2675503406380664,0.22644965936193365,0.35471956165792135,2127.9673076278586,4377.647077762999
1.195406659184437,807.2745246936738,806.9739406347721,0.11376227640402427,0.26763834597953273,0.22636165402046726,0.3547195616579214,2127.8129600955153,4379.728571157569
1.1969652076318744,807.3628236697572,807.0553383676852,0.11400581457191437,0.2677264584415093,0.22627354155849072,0.35471956165792146,2127.6584246906386,4381.808788778472
1.1985237560793118,807.4516421008583,807.1372416500382,0.11424964948992587,0.2678146782681096,0.22618532173189038,0.3547195616579215,2127.5037009850926,4383.8877346956
1.200082304526749,807.5409810468228,807.2196581999998,0.11449378184187843,0.2679030057067408,0.22609699429325922,0.35471956165792157,2127.3487885449636,4385.965412973601
1.2016408529741864,807.6308411448177,807.302595294234,0.11473821232029537,0.2679914410079587,0.22600855899204134,0.3547195616579216,2127.193686930816,4388.041827670157
1.2031994014216238,807.7212226108786,807.3860597444996,0.11498294162597815,0.2680799844253142,0.22592001557468575,0.3547195616579216,2127.0383956979613,4390.116982834258
1.2047579498690613,807.812125243031,807.4700578764082,0.11522797046755663,0.26816863621519094,0.2258313637848091,0.3547195616579217,2126.8829143967437,4392.1908825045
1.2063164983164985,807.903548425947,807.5545955104867,0.1154732995610164,0.26825739663663317,0.22574260336336682,0.35471956165792173,2126.7272425728397,4394.263530707404
1.2078750467639356,807.9954911370816,807.6396779456545,0.11571892962920582,0.26834626595116867,0.22565373404883132,0.3547195616579218,2126.5713797675703,4396.334931455766
1.209433595211373,808.0879519542303,807.7253099452087,0.11596486140132466,0.2684352444226229,0.22556475557737704,0.35471956165792184,2126.415325518228,4398.405088747041
1.2109921436588105,808.180929064433,807.8114957253837,0.11621109561239698,0.2685243323169288,0.22547566768307126,0.3547195616579219,2126.259079358408,4400.4740065617625
1.2125506921062479,808.2744202741444,807.8982389465233,0.11645763300273078,0.2686135299019306,0.2253864700980694,0.35471956165792196,2126.102640818353,4402.541688862016
1.214109240553685,808.3684230205855,807.9855427068809,0.11670447431736654,0.26870283744718526,0.22529716255281473,0.354719561657922,2125.946009425303,4404.608139589957
1.2156677890011225,808.4629343841805,808.0734095390364,0.11695162030551759,0.26879225522375916,0.2252077447762409,0.35471956165792207,2125.7891847038504,4406.673362666394
1.21722633744856,808.5579511019806,808.1618414088994,0.11719907172000424,0.2688817835040237,0.2251182164959763,0.3547195616579221,2125.6321661762977,4408.737361989409
1.218784885895997,808.6534695819754,808.250839717237,0.11744682931668479,0.2689714225614496,0.22502857743855037,0.3547195616579222,2125.4749533630215,4410.800141433066
1.2203434343434345,808.7494859181835,808.3404053036554,0.11769489385388544,0.2690611726704004,0.22493882732959958,0.3547195616579222,2125.31754578283,4412.861704846167
1.221901982790872,808.845995906419,808.4305384529349,0.1179432660918312,0.26915103410592656,0.22484896589407344,0.35471956165792223,2125.1599429533294,4414.922056051088
1.2234605312383093,808.9429950606262,808.5212389036094,0.11819194679208078,0.2692410071435612,0.22475899285643886,0.3547195616579223,2125.0021443912765,4416.981198842672
1.2250190796857465,809.040478629678,808.6125058586591,0.11844093671696689,0.2693310920591172,0.22466890794088276,0.35471956165792234,2124.8441496129394,4419.039136987213
1.2265776281331837,809.1384416145326,808.7043379981809,0.11869023662904434,0.26942128912848823,0.22457871087151177,0.3547195616579224,2124.6859581344443,4421.095874221495
1.2281361765806211,809.2368787856489,808.7967334938817,0.11893984729054771,0.2695115986274518,0.22448840137254827,0.35471956165792246,2124.5275694721204,4423.151414251917
1.2296947250280585,809.3357847005609,808.8896900252394,0.11918976946286022,0.26960202083147733,0.2243979791685227,0.3547195616579225,2124.3689831428383,4425.205760753691
1.231253273475496,809.4351537215194,808.9832047971671,0.11944000390599582,0.26969255601553915,0.22430744398446092,0.35471956165792257,2124.210198664335,4427.258917370109
1.2328118219229331,809.5349800331074,809.0772745590094,0.11969055137809517,0.26978320445393345,0.22421679554606655,0.3547195616579226,2124.0512155555393,4429.310887711896
1.2343703703703706,809.6352576597509,809.1718956247053,0.11994141263493766,0.2698739664201025,0.2241260335798975,0.3547195616579227,2123.892033336876,4431.3616753566275
1.235928918817808,809.7359804830403,809.2670638939446,0.12019258842946967,0.2699648421864633,0.2240351578135367,0.35471956165792273,2123.732651530569,4433.411283848226
1.2374874672652452,809.8371422587945,809.3627748741526,0.12044407951135082,0.27005583202424377,0.22394416797575617,0.3547195616579228,2123.573069660926,4435.459716696523
1.2390460157126826,809.9387366337982,809.4590237031351,0.12069588662651831,0.2701469362033252,0.2238530637966748,0.35471956165792284,2123.413287254619,4437.506977376904
1.24060456416012,810.0407571621502,809.55580517223,0.12094801051677034,0.2702381549920911,0.22376184500790888,0.3547195616579229,2123.253303840944,4439.553069330004
1.2421631126075574,810.1431973211731,809.6531137498048,0.12120045191936879,0.27032948865728396,0.22367051134271607,0.35471956165792295,2123.0931189520784,4441.597995961492
1.2437216610549946,810.2460505268323,809.7509436049602,0.12145321156666172,0.27042093746386825,0.2235790625361317,0.354719561657923,2122.9327321233145,4443.641760641894
1.2452802095024318,810.3493101486218,809.8492886312977,0.12170629018572561,0.27051250167490154,0.22348749832509848,0.35471956165792307,2122.772142893292,4445.684366706503
1.2468387579498692,810.4529695238846,809.9481424706221,0.12195968849802737,0.27060418155141136,0.22339581844858863,0.3547195616579231,2122.611350804209,4447.725817455334
1.2483973063973066,810.5570219715337,810.0474985364597,0.12221340721910581,0.27069597735228085,0.22330402264771917,0.3547195616579232,2122.4503554020253,4449.76611615314
1.249955854844744,810.6614608051509,810.147350037279,0.1224674470582728,0.27078788933414,0.22321211066586005,0.35471956165792323,2122.289156236652,4451.805266029477
1.2515144032921812,810.7662793454441,810.2476899993163,0.12272180871833308,0.2708799177512645,0.2231200822487355,0.3547195616579233,2122.12775286213,4453.843270278834
1.2530729517396186,810.8714709320485,810.3485112889111,0.1229764928953229,0.2709720628554814,0.22302793714451857,0.35471956165792334,2121.9661448367933,4455.880132060798
1.254631500187056,810.9770289346624,810.4498066342721,0.12323150027826596,0.2710643248960805,0.2229356751039195,0.3547195616579234,2121.8043317234283,4457.915854500265
1.2561900486344932,811.0829467635131,810.5515686466026,0.123486831548947,0.2711567041197324,0.22284329588026758,0.35471956165792345,2121.6423130894123,4459.950440687707
1.2577485970819307,811.1892178791514,810.6537898405213,0.12374248738170164,0.27124920077041276,0.22275079922958724,0.3547195616579235,2121.480088506851,4461.983893679466
1.259307145529368,811.2958358015783,810.7564626537281,0.1239984684432215,0.2713418150893316,0.22265818491066844,0.35471956165792357,2121.3176575527,4464.016216498083
1.2608656939768055,811.4027941187084,810.8595794658673,0.12425477539237419,0.27143454731486805,0.22256545268513198,0.3547195616579236,2121.155019808879,4466.047412132678
1.2624242424242427,811.5100864941832,810.9631326165575,0.12451140888003666,0.27152739768251044,0.22247260231748953,0.3547195616579237,2120.992174862379,4468.077483539343
1.2639827908716799,811.6177066745407,811.0671144225552,0.12476836954894145,0.27162036642480036,0.22237963357519963,0.3547195616579238,2120.829122305359,4470.106433641569
1.2655413393191173,811.7256484957626,811.1715171940357,0.1250256580335339,0.27171345377128103,0.22228654622871902,0.35471956165792384,2120.6658617352355,4472.134265330709
1.2670998877665547,811.8339058892086,811.2763332499766,0.12528327495983999,0.27180665994844944,0.22219334005155056,0.3547195616579239,2120.502392754769,4474.160981466446
1.268658436213992,811.9424728869623,811.3815549326355,0.12554122094534334,0.27189998517971226,0.22210001482028774,0.35471956165792395,2120.338714972139,4476.1865848772995
1.2702169846614293,812.0513436266045,811.4871746211246,0.12579949659887,0.27199342968534346,0.22200657031465654,0.354719561657924,2120.1748280010197,4478.211078361135
1.2717755331088667,812.1605123554382,811.5931847440818,0.12605810252048014,0.27208699368244577,0.22191300631755423,0.35471956165792407,2120.0107314606475,4480.234464685704
1.2733340815563041,812.2699734341837,811.6995777914507,0.12631703930136498,0.27218067738491303,0.221819322615087,0.3547195616579241,2119.8464249758854,4482.256746589186
1.2748926300037413,812.3797213401709,811.8063463253814,0.1265763075237481,0.2722744810033945,0.2217255189966055,0.3547195616579242,2119.681908177288,4484.277926780747
1.2764511784511787,812.4897506700496,811.913482990269,0.1268359077607896,0.2723684047452604,0.22163159525473958,0.35471956165792423,2119.5171807011607,4486.29800794111
1.2780097268986161,812.6000561420414,812.020980521951,0.12709584057649168,0.2724624488145676,0.22153755118543242,0.3547195616579243,2119.35224218962,4488.316992723126
1.2795682753460536,812.7106325977596,812.1288317560849,0.1273561065256049,0.27255661341202553,0.2214433865879745,0.35471956165792434,2119.1870922906523,4490.334883752358
1.2811268237934907,812.8214750036193,812.2370296357341,0.12761670615353274,0.272650898734962,0.22134910126503796,0.35471956165792445,2119.021730658177,4492.351683627666
1.282685372240928,812.9325784518606,812.3455672181872,0.12787763999623447,0.27274530497728794,0.22125469502271208,0.3547195616579245,2118.8561569521034,4494.367394921795
1.2842439206883653,813.0439381612126,812.4544376810413,0.12813890858012372,0.27283983232946046,0.22116016767053956,0.35471956165792456,2118.690370838401,4496.382020181962
1.2858024691358025,813.1555494772152,812.5636343275787,0.12840051242196196,0.27293448097844464,0.2210655190215554,0.3547195616579246,2118.5243719891614,4498.395561930446
1.2873610175832397,813.2674078722284,812.6731505914695,0.12866245202874568,0.27302925110767245,0.22097074889232748,0.3547195616579247,2118.3581600826737,4500.408022665177
1.2889195660306771,813.3795089451453,812.7829800408304,0.12892472789758552,0.2731241428969995,0.22087585710300053,0.35471956165792473,2118.191734803501,4502.419404860314
1.2904781144781146,813.4918484208348,812.8931163816734,0.1291873405155758,0.27321915652265694,0.22078084347734306,0.3547195616579248,2118.0250958425595,4504.429710966831
1.292036662925552,813.6044221493318,813.0035534607763,0.12945029035965347,0.27331429215720143,0.22068570784279856,0.3547195616579249,2117.858242897213,4506.438943413087
1.2935952113729892,813.7172261047974,813.1142852680077,0.12971357789644483,0.27340954996945893,0.2205904500305411,0.35471956165792495,2117.6911756713675,4508.447104605397
1.2951537598204266,813.8302563842664,813.2253059381378,0.12997720358209822,0.2735049301244646,0.22049506987553538,0.354719561657925,2117.5238938755765,4510.454196928598
1.296712308267864,813.9435092062023,813.336609752167,0.13024116786210144,0.27360043278339663,0.22039956721660336,0.35471956165792506,2117.35639722716,4512.460222746596
1.2982708567153012,814.0569809088767,813.4481911382047,0.13050547117108238,0.27369605810350395,0.22030394189649602,0.3547195616579251,2117.188685450327,4514.465184402916
1.2998294051627386,814.1706679485893,813.5600446719267,0.1307701139325913,0.27379180623802774,0.22020819376197226,0.35471956165792523,2117.020758276317,4516.469084221242
1.301387953610176,814.284566897747,813.6721650766408,0.13103509655886245,0.27388767733611485,0.22011232266388517,0.3547195616579253,2116.8526154435494,4518.471924505941
1.3029465020576134,814.3986744428136,813.7845472229919,0.13130041945055432,0.2739836715427241,0.22001632845727584,0.35471956165792534,2116.68425669779,4520.473707542583
1.3045050505050506,814.5129873821473,813.8971861283305,0.13156608299646622,0.2740797889985238,0.21992021100147618,0.3547195616579254,2116.5156817923285,4522.474435598448
1.3060635989524878,814.6275026237388,814.0100769557744,0.1318320875732294,0.2741760298397795,0.21982397016022048,0.35471956165792545,2116.3468904881756,4524.47411092302
1.3076221473999252,814.7422171828601,814.1232150129864,0.13209843354497072,0.27427239419823296,0.21972760580176706,0.35471956165792556,2116.1778825542783,4526.472735748482
1.3091806958473626,814.857128179641,814.2365957506959,0.1323651212629472,0.27436888220096933,0.21963111779903066,0.3547195616579256,2116.0086577677484,4528.47031229018
1.3107392442948,814.9722328365779,814.350214760982,0.13263215106514928,0.2744654939702742,0.2195345060297258,0.3547195616579257,2115.8392159141167,4530.4668427470915
1.3122977927422372,815.0875284759904,814.4640677753482,0.13289952327587068,0.27456222962347737,0.21943777037652262,0.35471956165792573,2115.669556787605,4532.462329302275
1.3138563411896746,815.203012517432,814.5781506626014,0.13316723820524262,0.27465908927278493,0.21934091072721512,0.35471956165792584,2115.4996801914217,4534.456774123311
1.315414889637112,815.318682475064,814.6924594265604,0.1334352961487298,0.2747560730250962,0.21924392697490377,0.3547195616579259,2115.329585938082,4536.45017936273
1.3169734380845493,815.4345359550022,814.8069902036104,0.1337036973865861,0.27485318098180767,0.2191468190181923,0.35471956165792595,2115.1592738497516,4538.442547158423
1.3185319865319867,815.5505706526407,814.9217392601223,0.1339724421832677,0.27495041323859987,0.21904958676140013,0.354719561657926,2114.988743758623,4540.433879634049
1.320090534979424,815.6667843499633,815.0367029897507,0.13424153078679948,0.27504776988520857,0.21895223011479148,0.3547195616579261,2114.8179955073133,4542.424178899427
1.3216490834268615,815.7831749128436,815.1518779106284,0.1345109634280938,0.2751452510051781,0.21885474899482188,0.3547195616579262,2114.647028949299,4544.413447050913
1.3232076318742987,815.8997402883438,815.2672606624711,0.13478074032021709,0.2752428566755964,0.2187571433244036,0.35471956165792623,2114.47584394938,4546.401686171765
1.3247661803217359,816.0164785020133,815.3828480036037,0.13505086165760213,0.2753405869668094,0.21865941303319059,0.35471956165792634,2114.3044403841805,4548.388898332502
1.3263247287691733,816.1333876551944,815.498636807923,0.13532132761520183,0.2754384419421153,0.21856155805788466,0.3547195616579264,2114.132818142685,4550.375085591246
1.3278832772166107,816.2504659223348,815.6146240618059,0.13559213834758135,0.27553642165743614,0.21846357834256386,0.35471956165792645,2113.9609771268165,4552.360249994051
1.3294418256640481,816.3677115483146,815.7308068609735,0.1358632939879451,0.2756345261609653,0.2183654738390347,0.35471956165792656,2113.7889172520495,4554.344393575225
1.3310003741114853,816.4851228457865,815.847182407323,0.13613479464709408,0.2757327554927908,0.21826724450720916,0.3547195616579266,2113.616638448077,4556.327518357635
1.3325589225589227,816.6026981925339,815.9637480057318,0.13640664041230965,0.27583110968449126,0.2181688903155088,0.3547195616579267,2113.4441406595147,4558.309626353008
1.3341174710063601,816.7204360288475,816.0805010608447,0.1366788313461592,0.2759295887587035,0.21807041124129653,0.3547195616579268,2113.2714238466615,4560.290719562207
1.3356760194537973,816.8383348549207,816.1974390738496,0.13695136748521908,0.27602819272866097,0.21797180727133908,0.35471956165792684,2113.0984879863076,4562.270799975516
1.3372345679012347,816.9563932282676,816.3145596392486,0.13722424883870954,0.2761269215976996,0.21787307840230047,0.3547195616579269,2112.9253330726024,4564.249869572894
1.338793116348672,817.0746097611606,816.4318604416277,0.1374974753870367,0.27622577535873016,0.21777422464126986,0.354719561657927,2112.75195911798,4566.227930324226
1.3403516647961096,817.1929831180909,816.5493392524337,0.1377710470802357,0.27632475399367545,0.21767524600632457,0.35471956165792706,2112.578366154144,4568.204984189569
1.3419102132435468,817.3115120132493,816.666993926758,0.1380449638363086,0.27642385747286846,0.21757614252713156,0.3547195616579271,2112.404554233126,4570.181033119377
1.343468761690984,817.430195208027,816.7848224001339,0.13831922553945208,0.27652308575441137,0.21747691424558868,0.35471956165792723,2112.2305234284086,4572.156079054722
1.3450273101384216,817.5490315085376,816.9028226853486,0.1385938320381664,0.2766224387834913,0.21737756121650872,0.3547195616579273,2112.0562738361245,4574.1301239275035
1.3465858585858588,817.6680197631562,817.0209928692718,0.13886878314323933,0.27672191649165107,0.21727808350834896,0.3547195616579274,2111.881805576337,4576.10316966064
1.3481444070332962,817.7871588600758,817.139331109704,0.13914407862559833,0.27682151879601186,0.2171784812039882,0.35471956165792745,2111.7071187944025,4578.075218168266
1.3497029554807334,817.9064477248788,817.2578356322443,0.13941971821402097,0.27692124559844494,0.21707875440155505,0.3547195616579275,2111.532213662423,4580.0462713559
1.3512615039281706,818.0258853181222,817.3765047271788,0.13969570159269692,0.27702109678468984,0.2169789032153102,0.3547195616579276,2111.357090380794,4582.016331120624
1.352820052375608,818.1454706329315,817.4953367463902,0.13997202839863132,0.27712107222341437,0.21687892777658566,0.3547195616579277,2111.1817491798515,4583.985399351231
1.3543786008230454,818.265202692605,817.6143301002869,0.14024869821888022,0.2772211717652148,0.2167788282347852,0.3547195616579278,2111.0061903216256,4585.953477928371
1.3559371492704828,818.3850805482205,817.7334832547532,0.1405257105876082,0.2773213952415513,0.21667860475844875,0.35471956165792784,2110.830414101709,4587.920568724702
1.3574956977179202,818.505103276246,817.8527947281165,0.1408030649829572,0.2774217424636148,0.21657825753638524,0.35471956165792795,2110.6544208512432,4589.886673605
1.3590542461653576,818.6252699761475,817.972263088132,0.14108076082371476,0.27752221322112175,0.21647778677887827,0.354719561657928,2110.4782109390317,4591.851794426295
1.3606127946127948,818.7455797679918,818.0918869489834,0.14135879746577032,0.2776228072810321,0.21637719271896794,0.3547195616579281,2110.3017847737915,4593.815933037966
1.362171343060232,818.8660317900399,818.2116649682948,0.141637174198346,0.2777235243861853,0.2162764756138147,0.3547195616579282,2110.1251428065407,4595.779091281845
1.3637298915076694,818.9866251963267,818.3315958441541,0.14191589023998918,0.27782436425385076,0.21617563574614929,0.3547195616579283,2109.9482855331453,4597.741270992309
1.3652884399551068,819.1073591542229,818.4516783121411,0.1421949447343111,0.27792532657418567,0.21607467342581432,0.35471956165792834,2109.7712134970197,4599.702473996355
1.3668469884025443,819.2282328419736,818.5719111423615,0.14247433674545817,0.278026411008597,0.21597358899140304,0.35471956165792845,2109.593927292003,4601.662702113672
1.3684055368499817,819.3492454462098,818.6922931364801,0.14275406525329865,0.27812761718799944,0.21587238281200058,0.3547195616579285,2109.416427565414,4603.621957156697
1.369964085297419,819.4703961594256,818.8128231247487,0.1430341291483078,0.27822894471096543,0.2157710552890346,0.3547195616579286,2109.2387150212926,4605.580240930671
1.3715226337448563,819.5916841774176,818.933499963026,0.1433145272261345,0.278330393141759,0.21566960685824105,0.3547195616579287,2109.060790423851,4607.537555233678
1.3730811821922935,819.7131086966793,819.0543225297845,0.1435952581818297,0.2784319620082476,0.2155680379917524,0.3547195616579288,2108.8826546011355,4609.493901856667
1.3746397306397309,819.8346689117446,819.1752897230988,0.14387632060371688,0.2785336507996847,0.2154663492003153,0.35471956165792884,2108.704308448916,4611.449282583485
1.376198279087168,819.9563640124742,819.2964004576096,0.14415771296688387,0.2786354589643549,0.21536454103564515,0.35471956165792895,2108.5257529348137,4613.403699190873
1.3777568275346057,820.0781931812776,819.4176536614582,0.14443943362627415,0.2787373859070742,0.21526261409292574,0.354719561657929,2108.346989102688,4615.357153448475
1.379315375982043,820.2001555902655,819.5390482731864,0.14472148080935343,0.27883943098653735,0.21516056901346264,0.3547195616579291,2108.168018077288,4617.30964711882
1.38087392442948,820.3222503983212,819.6605832385935,0.14500385260832888,0.278941593512502,0.21505840648749802,0.3547195616579292,2107.988841069189,4619.261181957299
1.3824324728769177,820.444476748089,819.7822575075448,0.14528654697189372,0.2790438727428024,0.2149561272571976,0.3547195616579293,2107.8094593800347,4621.211759712139
1.383991021324355,820.5668337628653,819.9040700307261,0.145569561696471,0.27914626788018126,0.21485373211981873,0.3547195616579294,2107.6298744080877,4623.16138212434
1.3855495697717923,820.68932054339,820.0260197563321,0.14585289441692967,0.2792487780689307,0.2147512219310693,0.35471956165792945,2107.4500876541256,4625.110050927637
1.3871081182192295,820.8119361645247,820.1481056266878,0.14613654259674122,0.2793514023913311,0.21464859760866892,0.35471956165792956,2107.2701007276846,4627.057767848412
1.388666666666667,820.9346796718118,820.2703265747895,0.146420503517549,0.27945413986387696,0.21454586013612306,0.35471956165792967,2107.0899153536784,4629.0045346056295
1.3902252151141044,821.0575500779034,820.3926815207583,0.14670477426811593,0.2795569894332785,0.21444301056672144,0.3547195616579297,2106.9095333794116,4630.950352910719
1.3917837635615415,821.1805463588511,820.5151693682001,0.14698935173261907,0.2796599499722266,0.21434005002777337,0.35471956165792984,2106.7289567820076,4632.895224467485
1.393342312008979,821.3036674502466,820.6377890004587,0.14727423257825628,0.27976302027490857,0.21423697972509143,0.3547195616579299,2106.5481876762715,4634.839150971972
1.3949008604564164,821.4269122432019,820.7605392767571,0.14755941324212837,0.27986619905226223,0.21413380094773773,0.35471956165793,2106.367228323016,4636.78213411233
1.3964594089038538,821.5502795801599,820.8834190282141,0.14784488991736128,0.2799694849269551,0.21403051507304485,0.3547195616579301,2106.186081137866,4638.724175568664
1.398017957351291,821.6737682505222,821.0064270537272,0.14813065853842952,0.2800728764280742,0.2139271235719258,0.35471956165793017,2106.004748700572,4640.665277012854
1.3995765057987282,821.7973769860857,821.1295621157129,0.14841671476564203,0.280176371985513,0.21382362801448704,0.3547195616579303,2105.823233764853,4642.6054401083875
1.4011350542461656,821.9211044562727,821.2528229356911,0.14870305396875075,0.2802799699240409,0.21372003007595908,0.3547195616579304,2105.6415392688004,4644.54466651014
1.4026936026936028,822.0449492631468,821.3762081897062,0.148989671209641,0.28038366845704105,0.21361633154295895,0.3547195616579305,2105.4596683458594,4646.482957864166
1.40425215114104,822.1689099361985,821.4997165035692,0.14927656122406274,0.2804874656799001,0.21351253432009992,0.35471956165793056,2105.2776243364224,4648.4203158074515
1.4058106995884774,822.2929849268914,821.6233464479157,0.14956371840236102,0.2805913595630367,0.2134086404369633,0.35471956165793067,2105.095410800056,4650.356741967666
1.4073692480359148,822.4171726029557,821.7470965330608,0.14985113676916345,0.28069534794455253,0.2133046520554475,0.3547195616579308,2104.9130315283896,4652.292237962874
1.4089277964833522,822.5414712424156,821.8709652036474,0.15013880996198387,0.28079942852249085,0.21320057147750915,0.35471956165793084,2104.7304905586943,4654.226805401242
1.4104863449307896,822.6658790273391,821.994950833068,0.15042673120870048,0.2809035988466882,0.2130964011533118,0.35471956165793095,2104.5477921881707,4656.160445880713
1.412044893378227,822.7903940372997,822.1190517176551,0.15071489330386864,0.28100785631020425,0.2129921436897958,0.35471956165793106,2104.3649409889827,4658.093160988665
1.4136034418256642,822.9150142425353,822.2432660706244,0.1510032885838294,0.28111219814031607,0.21288780185968392,0.35471956165793117,2104.1819418240498,4660.024952301538
1.4151619902731014,823.0397374967931,822.3675920157606,0.15129190890057748,0.28121662138906356,0.21278337861093644,0.3547195616579312,2103.998799863631,4661.955821384447
1.4167205387205388,823.1645615298526,822.4920275808335,0.1515807455943535,0.2813211229233333,0.21267887707666672,0.35471956165793134,2103.8155206027145,4663.885769790755
1.418279087167976,823.289483939712,822.616570690736,0.15186978946493038,0.2814256994144697,0.2125743005855303,0.35471956165793145,2103.6321098792387,4665.814799061628
1.4198376356154137,823.414502184432,822.7412191603299,0.152159030741567,0.2815303473274045,0.21246965267259546,0.35471956165793156,2103.448573893158,4667.742910725563
1.4213961840628508,823.5396135736258,822.8659706869913,0.15244845905160626,0.2816350629092954,0.2123649370907046,0.35471956165793167,2103.264919226368,4669.670106297871
1.422954732510288,823.6648152595915,822.9908228428479,0.15273806338770335,0.28173984217766906,0.21226015782233099,0.3547195616579317,2103.0811528635,4671.596387280155
1.4245132809577257,823.7901042280769,823.1157730666976,0.1530278320736739,0.28184468090806497,0.21215531909193502,0.35471956165793184,2102.897282213594,4673.5217551597325
1.4260718294051629,823.9154772886782,823.240818655602,0.15331775272896223,0.28194957462118025,0.21205042537881974,0.35471956165793195,2102.713315132642,4675.446211409032
1.4276303778526003,824.0409310648665,823.3659567561521,0.15360781223173986,0.2820545185695183,0.21194548143048167,0.35471956165793206,2102.529259947008,4677.369757484965
1.4291889263000375,824.1664619836477,823.4911843553982,0.1538979966806539,0.28215950772354964,0.2118404922764504,0.35471956165793217,2102.345125477696,4679.292394828239
1.4307474747474749,824.2920662648547,823.6164982714458,0.15418829135526016,0.282264536757396,0.21173546324260403,0.3547195616579323,2102.160921065458,4681.214124862663
1.4323060231949123,824.4177399100861,823.7418951437162,0.1544786806751885,0.282369600034057,0.211630399965943,0.3547195616579324,2101.9766565967066,4683.134948994389
1.4338645716423495,824.5434786912965,823.8673714228763,0.15476914815810708,0.28247469159020117,0.21152530840979886,0.3547195616579325,2101.7923425301888,4685.054868611128
1.435423120089787,824.6692781390585,823.9929233604446,0.15505967637656887,0.2825798051205528,0.2114201948794472,0.35471956165793256,2101.607989924365,4686.97388508132
1.4369816685372243,824.7951335305166,824.1185469980808,0.1553502469138461,0.28268493396191324,0.21131506603808678,0.35471956165793267,2101.4236104654397,4688.8919997532685
1.4385402169846617,824.9210398770585,824.244238156577,0.1556408403188816,0.2827900710768617,0.2112099289231383,0.3547195616579328,2101.239216495942,4690.80921395422
1.440098765432099,825.046991911737,824.3699924245665,0.15593143606051194,0.28289520903719356,0.21110479096280643,0.3547195616579329,2101.0548210437737,4692.725528989415
1.441657313879536,825.1729840764822,824.4958051469738,0.1562220124811458,0.2830003400071609,0.21099965999283907,0.354719561657933,2100.8704378516068,4694.640946141086
1.4432158623269735,825.299010509153,824.6216714132379,0.15651254675011197,0.28310545572659385,0.21089454427340615,0.3547195616579331,2100.6860814064794,4696.555466667415
1.444774410774411,825.4250650304789,824.7475860453394,0.15680301481692502,0.2832105474939919,0.21078945250600817,0.3547195616579332,2100.5017669694544,4698.469091801437
1.4463329592218483,825.5511411309599,824.8735435856784,0.15709339136475373,0.2833156061496887,0.21068439385031126,0.35471956165793334,2100.317510605148,4700.381822749914
1.4478915076692858,825.6772319577976,824.9995382848493,0.15738364976441513,0.2834206220592075,0.2105793779407925,0.35471956165793345,2100.1333292109175,4702.293660692153
1.4494500561167232,825.803330301941,825.1255640893723,0.15767376202925884,0.2835255850969375,0.2104744149030625,0.35471956165793356,2099.9492405454907,4704.20460677878
1.4510086045641604,825.9294285853395,825.251614629443,0.15796369877134891,0.28363048463028095,0.21036951536971904,0.35471956165793367,2099.7652632567742,4706.114662130475
1.4525671530115976,826.0555188485148,825.3776832067806,0.15825342915939597,0.28373530950443265,0.2102646904955673,0.3547195616579338,2099.581416908542,4708.023827836666
1.454125701459035,826.1815927385624,825.5037627826534,0.1585429208789376,0.2838400480279734,0.21015995197202664,0.3547195616579339,2099.397722005705,4709.93210495417
1.4556842499064722,826.3076414977176,825.6298459661795,0.15883214009531205,0.2839446879594734,0.21005531204052663,0.354719561657934,2099.214200017806,4711.839494505813
1.4572427983539098,826.4336559526251,825.7559250030033,0.15912105142001745,0.28404921649532144,0.20995078350467855,0.3547195616579341,2099.0308734003665,4713.745997478999
1.458801346801347,826.559626504468,825.8819917644655,0.15940961788109265,0.2841536202590085,0.2098463797409915,0.3547195616579342,2098.84776561368,4715.651614824251
1.4603598952487842,826.68554312012,826.0080377373888,0.15969780089820182,0.28425788529211304,0.20974211470788692,0.35471956165793433,2098.664901138624,4717.5563474537275
1.4619184436962218,826.8113953244979,826.1340540146159,0.15998556026314284,0.28436199704724946,0.20963800295275054,0.35471956165793445,2098.482305489025,4719.460196239702
1.463476992143659,826.9371721943057,826.260031286445,0.16027285412653677,0.2844659403832517,0.2095340596167483,0.3547195616579346,2098.300005220107,4721.363162013035
1.4650355405910964,827.0628623533606,826.3859598331157,0.1605596389914867,0.2845696995628794,0.20943030043712055,0.3547195616579347,2098.1180279325163,4723.265245561621
1.4665940890385336,827.1884539697103,826.5118295185115,0.16084586971501247,0.2846732582533371,0.20932674174666288,0.35471956165793483,2097.936402271408,4725.166447628831
1.4681526374859708,827.313934754749,826.6376297852446,0.16113149951808592,0.28477659952990453,0.20922340047009547,0.35471956165793495,2097.755157920081,4727.066768911954
1.4697111859334082,827.4392919645462,826.7633496513067,0.16141648000508801,0.2848797058829766,0.2091202941170234,0.35471956165793506,2097.5743255876287,4728.966210060646
1.4712697343808456,827.5645124036013,826.8889777084586,0.1617007611935004,0.2849825592288058,0.20901744077119422,0.35471956165793517,2097.393936990102,4730.864771675386
1.472828282828283,827.6895824312327,827.0145021225483,0.16198429155461702,0.2850851409242316,0.2089148590757684,0.3547195616579353,2097.2140248246715,4732.762454305968
1.4743868312757205,827.8144879708093,827.1399106359363,0.16226701806601682,0.28518743178566525,0.20881256821433478,0.35471956165793544,2097.034622736338,4734.659258450017
1.4759453797231579,827.9392145220097,827.2651905722091,0.1625488862764782,0.2852894121125759,0.20871058788742414,0.35471956165793556,2096.8557652767345,4736.555184551557
1.477503928170595,828.0637471762928,827.390328843352,0.1628298403839342,0.28539106171569484,0.20860893828430518,0.35471956165793567,2096.677487854663,4738.450232999628
1.4790624766180323,828.1880706357304,827.5153119595458,0.16310982332696458,0.28549235995011757,0.20850764004988243,0.3547195616579358,2096.4998266780412,4740.344404126978
1.479841750841751,828.250149035725,827.5777410121353,0.1632494324614039,0.285542870737221,0.20845712926277904,0.35471956165793583,2096.411238698991,4741.291160783667
1.4806210250654697,828.3121692353284,827.6401260417382,0.16338877689016204,0.28559328575342546,0.2084067142465746,0.3547195616579359,2096.3228186870397,4742.237698208828
1.4814002992891884,828.3741292233152,827.7024652551924,0.16352784917562507,0.28564360230779146,0.2083563976922086,0.354719561657936,2096.2345713616724,4743.184016427687
1.482179573512907,828.436026968959,827.7647568371059,0.16366664182377677,0.28569381768897306,0.20830618231102693,0.35471956165793606,2096.146501478164,4744.130115461743
1.4829588477366258,828.4978604230419,827.8269989505076,0.16380514728871068,0.28574392916685043,0.20825607083314956,0.3547195616579361,2096.058613824715,4745.075995328729
1.4837381219603445,828.5596275189218,827.8891897375446,0.16394335797735946,0.28579393399424075,0.20820606600575925,0.35471956165793617,2095.970913219452,4746.0216560425915
1.4845173961840632,828.621326173659,827.9513273202307,0.16408126625444033,0.28584382940868774,0.20815617059131228,0.3547195616579362,2095.8834045072895,4746.967097613463
1.485296670407782,828.682954289196,828.0134098012433,0.16421886444761247,0.2858936126343272,0.20810638736567277,0.3547195616579363,2095.7960925566567,4747.912320047638
1.4860759446315006,828.7445097535972,828.0754352647705,0.16435614485284097,0.2859432808838283,0.20805671911617166,0.35471956165793633,2095.708982256093,4748.85732334755
1.4868552188552193,828.80599044234,828.137401777407,0.16449309973996262,0.28599283136040676,0.2080071686395932,0.3547195616579364,2095.6220785107193,4749.802107511758
1.487634493078938,828.8673942196631,828.1993073891005,0.16462972135844675,0.2860422612599093,0.2079577387400907,0.3547195616579365,2095.5353862385787,4750.746672534925
1.4884137673026565,828.9287189399652,828.2611501341447,0.1647660019433434,0.28609156777296585,0.20790843222703415,0.35471956165793656,2095.4489103668657,4751.691018407807
1.4891930415263754,828.9899624492559,828.3229280322238,0.1649019337214118,0.2861407480872066,0.20785925191279345,0.3547195616579366,2095.3626558280334,4752.635145117244
1.4899723157500941,829.051122586656,828.3846390895017,0.16503750891741717,0.28618979938954026,0.20781020061045974,0.35471956165793667,2095.2766275558024,4753.579052646143
1.4907515899738129,829.1121971859442,828.4462812997592,0.16517271976058961,0.2862387188684911,0.20776128113150885,0.3547195616579367,2095.190830481059,4754.522740973483
1.4915308641975313,829.17318407715,828.5078526455777,0.16530755849123013,0.28628750371658884,0.20771249628341115,0.3547195616579368,2095.105269527665,4755.466210074308
1.4923101384212498,829.2340810881891,828.5693510995651,0.16544201736745504,0.2863361511328087,0.20766384886719133,0.35471956165793683,2095.019949608177,4756.409459919724
1.4930894126449685,829.2948860465374,828.6307746256268,0.16557608867206286,0.28638465832505594,0.20761534167494408,0.35471956165793694,2094.93487561949,4757.352490476907
1.4938686868686872,829.3555967809438,828.6921211802776,0.16570976471951343,0.286433022512691,0.20756697748730896,0.354719561657937,2094.8500524384094,4758.2953017091095
1.494647961092406,829.4162111231764,828.7533887139916,0.1658430378630016,0.28648124092908883,0.20751875907091116,0.35471956165793705,2094.76548491716,4759.237893575665
1.4954272353161246,829.4767269097985,828.8145751725923,0.16597590050161296,0.28652931082422745,0.20747068917577252,0.3547195616579371,2094.681177878848,4760.180266032009
1.4962065095398431,829.5371419839732,828.8756784986765,0.16610834508754313,0.28657722946730035,0.2074227705326996,0.35471956165793717,2094.5971361128786,4761.122419029683
1.4969857837635616,829.5974541972907,828.9366966330721,0.1662403641333669,0.2866249941493463,0.20737500585065372,0.3547195616579372,2094.513364370345,4762.064352516368
1.4977650579872803,829.6576614116145,828.9976275163262,0.16637195021933796,0.28667260218589025,0.20732739781410978,0.35471956165793733,2094.429867359392,4763.006066435897
1.498544332210999,829.7177615009454,829.0584690902224,0.16650309600070187,0.28672005091958935,0.2072799490804106,0.3547195616579374,2094.346649740583,4763.947560728286
1.499323606434718,829.7777523532943,829.1192192993219,0.1666337942150055,0.2867673377228777,0.20723266227712234,0.35471956165793744,2094.2637161222556,4764.88883532976
1.5001028806584364,829.8376318725647,829.1798760925294,0.16676403768938305,0.28681446000060196,0.20718553999939807,0.3547195616579375,2094.1810710559,4765.829890172787
1.5008821548821552,829.8973979804366,829.2404374246759,0.16689381934780073,0.28686141519264285,0.20713858480735717,0.35471956165793755,2094.0987190315627,4766.770725186117
1.5016614291058739,829.9570486182494,829.3009012581203,0.16702313221824117,0.28690820077651435,0.2070917992234856,0.35471956165793767,2094.016664473288,4767.711340294817
1.5024407033295926,830.0165817488781,829.3612655643623,0.1671519694398077,0.28695481426993424,0.20704518573006575,0.3547195616579377,2093.9349117346087,4768.651735420319
1.5032199775533113,830.0759953586003,829.4215283256658,0.1672803242697316,0.2870012532333589,0.2069987467666411,0.3547195616579378,2093.8534650941006,4769.591910480459
1.5039992517770298,830.1352874589461,829.481687536689,0.16740819009026095,0.28704751527247613,0.20695248472752384,0.35471956165793783,2093.772328751011,4770.531865389534
1.5047785260007482,830.1944560885294,829.5417412061171,0.16753556041541365,0.28709359804064827,0.20690640195935173,0.3547195616579379,2093.6915068209737,4771.47160005835
1.505557800224467,830.2534993148546,829.6016873582932,0.1676624288975761,0.28713949924129945,0.20686050075870052,0.354719561657938,2093.611003331821,4772.411114394283
1.5063370744481857,830.3124152360941,829.6615240348472,0.16778878933392957,0.28718521663024094,0.2068147833697591,0.35471956165793805,2093.5308222195076,4773.35040830133
1.5071163486719044,830.3712019828326,829.7212492963139,0.1679146356726865,0.28723074801792714,0.20676925198207285,0.3547195616579381,2093.4509673241514,4774.289481680181
1.507895622895623,830.4298577197736,829.7808612237428,0.16803996201911944,0.28727609127163717,0.20672390872836283,0.35471956165793816,2093.3714423862107,4775.228334428274
1.5086748971193418,830.4883806474033,829.8403579202898,0.16816476264136673,0.28732124431757516,0.20667875568242483,0.3547195616579382,2093.2922510427966,4776.166966439877
1.5094541713430605,830.5467690036096,829.8997375127925,0.1682890319759983,0.2873662051428841,0.20663379485711592,0.35471956165793833,2093.2133968241446,4777.1053776061435
1.5102334455667792,830.605021065249,829.9589981533212,0.16841276463332944,0.2874109717975682,0.20658902820243183,0.3547195616579384,2093.1348831502396,4778.043567815198
1.511012719790498,830.6631351496617,830.0181380207066,0.1685359554024652,0.2874555423963181,0.20654445760368192,0.35471956165793844,2093.0567133276186,4778.981536952207
1.5117919940142166,830.7211096161263,830.0771553220358,0.16865859925606402,0.2874999151202344,0.20650008487976562,0.3547195616579385,2092.978890546345,4779.919284899462
1.5125712682379353,830.7789428672564,830.136048294118,0.16878069135481008,0.28754408821844557,0.2064559117815544,0.3547195616579386,2092.901417877172,4780.856811536458
1.513350542461654,830.8366333503301,830.1948152049126,0.16890222705158053,0.2875880600096159,0.2064119399903841,0.35471956165793866,2092.8242982688985,4781.794116739978
1.5141298166853727,830.8941795585532,830.2534543549204,0.1690232018953008,0.2876318288833401,0.2063681711166599,0.3547195616579387,2092.7475345459216,4782.73120038418
1.5149090909090912,830.9515800322533,830.311964078532,0.1691436116344777,0.2876753933014218,0.20632460669857822,0.3547195616579388,2092.671129405997,4783.668062340686
1.5156883651328097,831.0088333599996,830.3703427453311,0.1692634522204043,0.28771875179903295,0.20628124820096705,0.3547195616579389,2092.595085418201,4784.604702478671
1.5164676393565284,831.0659381796489,830.4285887613519,0.16938271981002906,0.28776190298575194,0.20623809701424806,0.35471956165793894,2092.519405021116,4785.541120664958
1.517246913580247,831.1228931793145,830.4867005702856,0.1695014107684861,0.28780484554647906,0.20619515445352093,0.354719561657939,2092.44409052122,4786.477316764102
1.5180261878039658,831.1796970982565,830.5446766546352,0.1696195216712806,0.2878475782422271,0.2061524217577729,0.35471956165793905,2092.369144091501,4787.413290638499
1.5188054620276845,831.2363487276931,830.6025155368159,0.16973704930613268,0.2878900999107885,0.20610990008921148,0.35471956165793916,2092.2945677702883,4788.349042148475
1.5195847362514032,831.2928469115302,830.6602157801993,0.16985399067447032,0.28793240946727566,0.20606759053272433,0.3547195616579392,2092.220363460305,4789.284571152382
1.520364010475122,831.349190547009,830.7177759900997,0.16997034299257865,0.28797450590453644,0.20602549409546358,0.3547195616579393,2092.1465329279376,4790.219877506702
1.5211432846988406,831.4053785852732,830.7751948146998,0.17008610369240604,0.28801638829344606,0.20598361170655397,0.35471956165793933,2092.073077802724,4791.154961066144
1.5219225589225593,831.4614100318511,830.8324709459167,0.1702012704220257,0.288058055783074,0.20594194421692608,0.35471956165793944,2091.9999995770636,4792.089821683745
1.522701833146278,831.5172839470578,830.8896031202049,0.1703158410457611,0.2880995076007293,0.2059004923992707,0.3547195616579395,2091.927299606134,4793.024459210974
1.5234811073699968,831.5729994463138,830.9465901192959,0.1704298136439783,0.28814074305188575,0.20585925694811424,0.35471956165793955,2091.8549791080254,4793.958873497827
1.5242603815937155,831.628555700383,831.0034307708747,0.17054318651255232,0.2881817615199884,0.2058182384800116,0.35471956165793966,2091.7830391640778,4794.893064392937
1.5250396558174342,831.6839519355293,831.0601239491909,0.17065595816201215,0.2882225624661445,0.20577743753385547,0.3547195616579397,2091.711480719425,4795.827031743671
1.5258189300411527,831.7391874335945,831.1166685756049,0.17076812731637556,0.2882631454287019,0.2057368545712981,0.3547195616579398,2091.640304583732,4796.760775396232
1.5265982042648711,831.7942615319968,831.1730636190701,0.170879692911682,0.28830351002271803,0.20569648997728196,0.35471956165793983,2091.5695114321275,4797.694295195769
1.5273774784885898,831.8491736236547,831.2293080965486,0.17099065409423128,0.288343655939323,0.20565634406067707,0.35471956165793994,2091.4991018063206,4798.627590986467
1.5281567527123086,831.903923156834,831.2854010733632,0.17110101021854016,0.2883835829449799,0.20561641705502012,0.35471956165794,2091.4290761158986,4799.560662611657
1.5289360269360273,831.958509634922,831.3413416634841,0.17121076084502954,0.2884232908806485,0.20557670911935153,0.35471956165794005,2091.3594346397927,4800.493509913915
1.529715301159746,832.0129326161332,831.3971290297527,0.171319905737451,0.28846277966085376,0.20553722033914623,0.35471956165794016,2091.290177527913,4801.42613273516
1.5304945753834645,832.067191713143,831.4527623840415,0.17142844486006656,0.2885020492726656,0.2054979507273344,0.3547195616579402,2091.2213048029366,4802.3585309167565
1.5312738496071834,832.1212865926585,831.5082409873525,0.17153637837459704,0.2885410997745949,0.2054589002254051,0.3547195616579403,2091.152816362245,4803.290704299615
1.532053123830902,832.1752169749234,831.5635641498527,0.17164370663694495,0.2885799312954076,0.20542006870459237,0.3547195616579404,2091.084711980003,4804.222652724282
1.5328323980546208,832.2289826331638,831.6187312308531,0.1717504301937154,0.28861854403286635,0.2053814559671336,0.35471956165794044,2091.016991309365,4805.154376031044
1.5336116722783393,832.2825833929753,831.673741638725,0.17185654977853893,0.2886569382523997,0.20534306174760034,0.3547195616579405,2090.9496538848125,4806.085874060022
1.5351702207257765,832.389289777479,831.7832903129843,0.17206698087872513,0.28873307252931585,0.20526692747068415,0.35471956165794066,2090.8161263332686,4807.948193644828
1.5367287691732139,832.4953357539198,831.8922064141822,0.1722750093965855,0.28880833754846574,0.20519166245153428,0.35471956165794083,2090.684123323178,4809.809610199855
1.538287317620651,832.6007217377768,832.0004869543267,0.17248064752099643,0.28888273771980244,0.20511726228019755,0.35471956165794094,2090.5536371201765,4811.670122449449
1.5398458660680883,832.7054489064567,832.1081297039248,0.17268391002725333,0.2889562783890493,0.2050437216109507,0.3547195616579411,2090.4246583487065,4813.529729123932
1.541404414515526,832.8095191688644,832.2151331770516,0.1728848141275605,0.2890289657836067,0.20497103421639332,0.3547195616579413,2090.2971760868863,4815.388428962271
1.542962962962963,832.9129351329956,832.3214966137205,0.17308337931702922,0.28910080695683416,0.20489919304316587,0.3547195616579414,2090.1711779642314,4817.246220714622
1.5445215114104005,833.0157000719349,832.4272199598238,0.173279627216809,0.2891718097312949,0.20482819026870508,0.35471956165794155,2090.0466502611966,4819.103103144753
1.5460800598578377,833.1178178886244,832.5323038449241,0.17347358141583172,0.28924198264149875,0.20475801735850127,0.3547195616579417,2089.923578009594,4820.959075032325
1.5476386083052749,833.2192930797478,832.6367495581688,0.1736652673125473,0.2893113348766415,0.2046886651233585,0.3547195616579419,2089.801945093018,4822.8141351750455
1.5491971567527123,833.3201306990596,832.7405590226087,0.17385471195791344,0.28937987622379896,0.20462012377620106,0.354719561657942,2089.6817343464772,4824.668282390678
1.5507557052001497,833.4203363204592,832.8437347681814,0.1740419439007481,0.28944761701197486,0.2045523829880252,0.35471956165794216,2089.5629276545224,4826.521515518914
1.5523142536475871,833.5199160010869,832.9462799036229,0.17422699303643802,0.2895145680573633,0.20448543194263671,0.35471956165794233,2089.44550604725,4828.373833423109
1.5538728020950245,833.6188762446909,833.0481980875501,0.17440989045984728,0.2895807406101313,0.20441925938986877,0.3547195616579425,2089.329449793636,4830.225234991877
1.555431350542462,833.7172239654935,833.1494934989523,0.17459066832316655,0.28964614630298785,0.20435385369701212,0.3547195616579426,2089.214738491737,4832.075719140554
1.5569898989898991,833.8149664527417,833.2501708073036,0.17476935969925744,0.2897107971017424,0.2042892028982576,0.3547195616579428,2089.101351155405,4833.92528481252
1.5585484474373363,833.9121113361249,833.3502351425047,0.1749459984510141,0.289774705258039,0.204225294741961,0.35471956165794294,2088.9892662971833,4835.773930980402
1.5601069958847738,834.0086665521949,833.4496920648376,0.1751206191070701,0.2898378832643873,0.20416211673561271,0.3547195616579431,2088.8784620071733,4837.6216566471485
1.5616655443322112,834.1046403119111,833.5485475351005,0.17529325674412194,0.28990034381158697,0.20409965618841305,0.35471956165794327,2088.768916027708,4839.46846084697
1.5632240927796486,834.200041069412,833.6468078850814,0.17546394687604522,0.2899620997486096,0.20403790025139043,0.35471956165794344,2088.6606058237116,4841.31434264618
1.564782641227086,834.2948774920839,833.744479788498,0.17563272534987098,0.2900231640449629,0.20397683595503707,0.3547195616579436,2088.553508648706,4843.15930114392
1.5663411896745234,834.3891584319895,833.8415702325299,0.1757996282486441,0.29008354975554496,0.20391645024445507,0.3547195616579437,2088.447601606453,4845.003335472763
1.567120463898242,834.4360934059522,833.8898996696214,0.17588238767551748,0.29011349223608807,0.20388650776391193,0.3547195616579438,2088.395087203269,4845.92500581205
1.5678997381219606,834.4828928986865,833.9380864900243,0.17596469180112065,0.290143269987972,0.20385673001202798,0.3547195616579439,2088.3428617082545,4846.846444799237
1.568679012345679,834.5295580567725,833.9861316430573,0.17604654516309412,0.2901728846529217,0.2038271153470783,0.354719561657944,2088.2909222420813,4847.767652335516
1.5694582865693978,834.5760900334932,834.0340360925669,0.17612795229809097,0.2902023378723047,0.20379766212769523,0.35471956165794405,2088.239265926048,4848.688628324243
1.5702375607931165,834.622489988108,834.0818008161319,0.17620891773952158,0.29023163128631563,0.2037683687136844,0.35471956165794416,2088.187889883513,4849.609372670954
1.5710168350168352,834.6687590851487,834.1294268042826,0.17628944601539373,0.29026076653319405,0.20373923346680595,0.3547195616579442,2088.1367912412607,4850.529885283371
1.571796109240554,834.714898493738,834.1769150597355,0.1763695416462503,0.29028974524847906,0.20371025475152096,0.3547195616579443,2088.085967130812,4851.450166071405
1.5725753834642724,834.7609093869285,834.2242665966425,0.17644920914319717,0.2903185690642952,0.20368143093570476,0.3547195616579444,2088.035414689678,4852.370214947159
1.5733546576879913,834.8067929410657,834.2714824398573,0.17652845300602818,0.2903472396086746,0.20365276039132543,0.3547195616579445,2087.9851310625463,4853.290031824938
1.57413393191171,834.852550335171,834.3185636242166,0.17660727772143742,0.29037575850490943,0.20362424149509056,0.35471956165794455,2087.935113402417,4854.209616621242
1.5749132061354287,834.8981827503463,834.3655111938381,0.17668568776131527,0.29040412737093624,0.2035958726290637,0.35471956165794466,2087.8853588716843,4855.128969254776
1.5756924803591472,834.9436913692002,834.4123262014338,0.1767636875811387,0.2904323478187531,0.20356765218124687,0.3547195616579447,2087.835864643157,4856.048089646446
1.5764717545828657,834.9890773752953,834.4590097076419,0.17684128161843998,0.2904604214538656,0.20353957854613447,0.3547195616579448,2087.7866279010304,4856.966977719355
1.5772510288065844,835.0343419526139,834.5055627803733,0.17691847429135216,0.2904883498747605,0.20351165012523947,0.3547195616579449,2087.7376458418103,4857.885633398808
1.5780303030303031,835.0794862850469,834.5519864941743,0.17699526999724105,0.29051613467241133,0.20348386532758866,0.354719561657945,2087.6889156751795,4858.804056612301
1.5788095772540218,835.1245115558997,834.5982819296084,0.17707167311141148,0.29054377742980964,0.2034562225701904,0.35471956165794505,2087.640434624819,4859.722247289526
1.5795888514777405,835.1694189474201,834.6444501726527,0.17714768798588432,0.29057127972152286,0.2034287202784771,0.35471956165794516,2087.5921999291854,4860.6402053623615
1.580368125701459,835.2142096403429,834.690492314111,0.17722331894824933,0.29059864311327926,0.20340135688672073,0.3547195616579452,2087.5442088422383,4861.557930764865
1.5811473999251775,835.2588848134551,834.7364094490449,0.17729857030059018,0.29062586916157895,0.203374130838421,0.3547195616579453,2087.49645863412,4862.475423433272
1.5819266741488962,835.3034456431774,834.782202676219,0.1773734463184622,0.29065295941332414,0.2033470405866759,0.3547195616579454,2087.4489465918077,4863.3926833059895
1.582705948372615,835.3478933031654,834.8278730975649,0.17744795124995724,0.2906799154054804,0.2033200845945196,0.3547195616579455,2087.4016700197058,4864.309710323578
1.5834852225963338,835.3922289639279,834.8734218176601,0.17752208931481364,0.2907067386647553,0.2032932613352447,0.35471956165794555,2087.3546262402087,4865.226504428756
1.5842644968200523,835.4364537924611,834.9188499432231,0.17759586470359556,0.29073343070730107,0.20326656929269896,0.35471956165794566,2087.3078125942243,4866.143065566386
1.585043771043771,835.4805689519002,834.9641585826247,0.17766928157692444,0.29075999303843647,0.20324000696156355,0.3547195616579457,2087.2612264416593,4867.059393683465
1.5858230452674897,835.5245756011891,835.0093488454155,0.17774234406477976,0.2907864271523941,0.20321357284760588,0.3547195616579458,2087.214865161866,4867.975488729112
1.5866023194912084,835.5684748947613,835.0544218418679,0.17781505626583358,0.29081273453207945,0.20318726546792054,0.3547195616579459,2087.16872615406,4868.891350654562
1.5873815937149272,835.6122679822404,835.0993786825347,0.17788742224685394,0.29083891664885514,0.20316108335114486,0.354719561657946,2087.1228068377036,4869.806979413151
1.5881608679386459,835.6559560081545,835.1442204778222,0.17795944604215375,0.29086497496234137,0.20313502503765862,0.35471956165794605,2087.0771046528516,4870.722374960304
1.5889401421623646,835.6995401116643,835.1889483375788,0.17803113165308582,0.2908909109202334,0.2031090890797666,0.35471956165794616,2087.031617060475,4871.637537253528
1.5897194163860833,835.7430214263054,835.2335633706979,0.17810248304758014,0.29091672595813406,0.203083274041866,0.3547195616579462,2086.9863415427512,4872.552466252394
1.590498690609802,835.7864010797449,835.2780666847351,0.17817350415973618,0.2909424214994062,0.20305757850059383,0.3547195616579463,2086.941275603326,4873.467161918526
1.5912779648335207,835.8296801935514,835.322459385541,0.17824419888944773,0.290967998955037,0.203032001044963,0.3547195616579464,2086.8964167675504,4874.381624215587
1.5920572390572394,835.8728598829779,835.3667425769066,0.17831457110207316,0.29099345972351887,0.2030065402764811,0.3547195616579465,2086.8517625826876,4875.295853109266
1.592836513280958,835.9159412567549,835.4109173602225,0.17838462462813706,0.291018805190741,0.20298119480925894,0.3547195616579466,2086.807310618106,4876.209848567262
1.5936157875046768,835.9589254169006,835.454984834153,0.17845436326308545,0.2910440367299014,0.20295596327009857,0.35471956165794666,2086.7630584654326,4877.123610559273
1.5943950617283953,836.0018134585373,835.4989460943222,0.17852379076705374,0.2910691557014225,0.20293084429857755,0.35471956165794677,2086.7190037387,4878.037139056976
1.5951743359521138,836.0446064697228,835.5428022330129,0.1785929108646863,0.2910941634528858,0.20290583654711417,0.3547195616579468,2086.6751440744624,4878.95043403402
1.5959536101758325,836.0873055312909,835.5865543388794,0.17866172724497884,0.2911190613189756,0.20288093868102444,0.35471956165794694,2086.631477131893,4879.863495466
1.5967328843995512,836.1299117167035,835.630203496671,0.1787302435611543,0.29114385062143305,0.20285614937856694,0.354719561657947,2086.5880005928666,4880.77632333045
1.59751215862327,836.1724260919136,835.6737507869703,0.17879846343057318,0.2911685326690244,0.2028314673309755,0.3547195616579471,2086.5447121620114,4881.688917606823
1.5982914328469886,836.2148497152353,835.71719728594,0.1788663904346557,0.291193108757513,0.20280689124248708,0.3547195616579472,2086.501609566764,4882.601278276477
1.5990707070707073,836.2571836372254,835.7605440650827,0.1789340281188457,0.2912175801696451,0.2027824198303549,0.35471956165794727,2086.4586905573874,4883.513405322659
1.599849981294426,836.2994289005745,835.8037921910139,0.17900137999259266,0.2912419481751449,0.2027580518248551,0.3547195616579474,2086.4159529069857,4884.425298730484
1.6006292555181447,836.3415865400073,835.8469427252433,0.17906844952936388,0.29126621403071784,0.20273378596928215,0.35471956165794744,2086.373394411496,4885.336958486926
1.6014085297418634,836.3836575821881,835.889996723967,0.1791352401666649,0.2912903789800584,0.2027096210199416,0.35471956165794755,2086.3310128896724,4886.248384580796
1.6021878039655821,836.4256430456378,835.9329552378724,0.17920175530609442,0.29131444425386993,0.20268555574613012,0.3547195616579476,2086.288806183056,4887.159577002723
1.6029670781893008,836.4675439406595,835.975819311951,0.17926799831341786,0.29133841106989117,0.20266158893010883,0.3547195616579477,2086.246772155923,4888.070535745147
1.6037463524130195,836.5093612692659,836.0185899853216,0.17933397251864616,0.29136228063292496,0.20263771936707503,0.3547195616579478,2086.2049086952393,4888.98126080229
1.6045256266367383,836.5510960251222,836.0612682910637,0.17939968121615446,0.29138605413488106,0.20261394586511897,0.3547195616579479,2086.163213710584,4889.891752170149
