z,T,t,fs,x,y,w,rhob,p
0.0,556.2446027245811,298.0,0.0,0.2264790065992439,0.2675209934007561,0.35471954460767885,2200.0,2040.0
0.0018368606701940036,573.2468677148875,337.17245781017203,3.5237906212670736e-07,0.2264791340904991,0.26752086590950086,0.35471954460767885,2199.9997764003833,2043.794582036999
0.0036737213403880073,588.7191170530809,372.5753608799354,1.3188960481767242e-06,0.22647948377774493,0.26752051622225503,0.35471954460767885,2199.9991631039334,2047.7616692600386
0.007347442680776015,615.7131138537712,433.81063255380803,6.956540718792523e-06,0.22648152348575448,0.2675184765142455,0.35471954460767885,2199.9955857767764,2056.155672100792
0.011021164021164022,638.3023133047566,484.55897514670215,2.068417130137533e-05,0.22648649016238762,0.2675135098376124,0.35471954460767885,2199.986875006845,2065.0774396007005
0.01469488536155203,657.3070077109442,526.919878404749,4.545412103556343e-05,0.22649545196608772,0.26750454803391227,0.35471954460767885,2199.9711574121693,2074.438096442048
0.022042328042328044,686.9830157359129,592.472610555018,0.0001338487942747342,0.22652743328693037,0.2674725667130697,0.35471954460767885,2199.915067203656,2094.1858190029993
0.027552910052910055,703.6993847787745,629.079282725807,0.00023481520806711693,0.22656396308171883,0.26743603691828116,0.35471954460767885,2199.8509996869725,2109.6660242374837
0.033063492063492066,716.8823450583776,657.7790370088164,0.0003633267994917339,0.22661045876168165,0.2673895412383183,0.35471954460767885,2199.769453574574,2125.549806519994
0.03857407407407408,727.324311130366,680.3960745557034,0.0005163116574396628,0.22666580890492904,0.26733419109507095,0.35471954460767885,2199.6723781257124,2141.7200493489895
0.04408465608465609,735.6250597972839,698.291773409002,0.0006905426424332717,0.22672884592772258,0.2672711540722774,0.35471954460767885,2199.5618210986913,2158.085259280314
0.05143209876543211,744.1406191593289,716.5554178135433,0.0009507301282700232,0.2268229821370535,0.2671770178629465,0.35471954460767885,2199.3967209880357,2180.087726928277
0.05877954144620812,750.4680971521161,730.0413128342777,0.00123717963070692,0.22692661998203828,0.2670733800179617,0.35471954460767885,2199.2149565023324,2202.184309780868
0.06612698412698413,755.1920000758307,740.0383346593192,0.0015448914556077961,0.22703795056609502,0.26696204943390495,0.35471954460767885,2199.019700161783,2224.284028002544
0.07714814814814816,760.1661554307859,750.4525293947135,0.002037968147839791,0.2272163464277056,0.2667836535722944,0.3547195446076789,2198.7068218687036,2257.3035606520416
0.08816931216931218,763.4417148148967,757.1894574626917,0.002560505358921429,0.22740540114771787,0.26659459885228215,0.3547195446076789,2198.3752496138204,2290.046379591874
0.09919047619047619,765.6370815484329,761.5912941509282,0.003105976201801527,0.22760275328894067,0.2663972467110593,0.3547195446076789,2198.029124986691,2322.4309035926135
0.11021164021164022,767.1442875036698,764.5064499559145,0.00367004663000424,0.22780683478707994,0.26619316521292,0.35471954460767896,2197.67119812555,2354.41333248145
0.12123280423280425,768.2128229691506,766.473876825369,0.004249853956858018,0.22801660991795053,0.26598339008204946,0.35471954460767896,2197.3032855277756,2385.973062031374
0.13225396825396826,769.0018160635709,767.836935008959,0.00484351249398252,0.22823139643676446,0.2657686035632355,0.35471954460767896,2196.9265837434614,2417.103600613094
0.14327513227513228,769.6128782545322,768.814723324547,0.005449781488760623,0.22845074543742727,0.2655492545625727,0.354719544607679,2196.5418800833177,2447.8069151048285
0.1542962962962963,770.1109251700275,769.5471553279732,0.006067844486269945,0.2286743615253652,0.2653256384746348,0.354719544607679,2196.149692622984,2478.089918143297
0.1653174603174603,770.537431314095,770.1235985538774,0.006697163675652043,0.22890205011983045,0.26509794988016955,0.35471954460767907,2195.7503626264984,2507.962293586806
0.17633862433862435,770.9188891162479,770.6011290861345,0.007337384138374346,0.22913368281078378,0.26486631718921627,0.35471954460767907,2195.344115304881,2537.435158250861
0.18735978835978837,771.2722146399386,771.0161880011068,0.00798827108060042,0.22936917464947498,0.264630825350525,0.3547195446076791,2194.931099644884,2566.5202457988676
0.19838095238095238,771.6082041335764,771.392031279157,0.008649668769840647,0.22960846929166367,0.2643915307083363,0.3547195446076791,2194.511414465446,2595.2294160868396
0.21491269841269842,772.0940337922335,771.9131762108599,0.00966125646622367,0.2299744631857859,0.2640255368142141,0.3547195446076792,2193.8695187183325,2637.613829708376
0.23144444444444445,772.56944408365,772.4076543355491,0.010696053626648891,0.23034885429762408,0.2636511457023759,0.35471954460767924,2193.212895571593,2679.2166873927736
0.2479761904761905,773.0413822309577,772.8904205616179,0.01175394593908314,0.23073160126891895,0.26326839873108104,0.3547195446076793,2192.5416175611117,2720.073837372469
0.2645079365079365,773.5133813193521,773.369072749785,0.012834876426270413,0.2311226834852168,0.2628773165147832,0.35471954460767935,2191.855720841399,2760.218803787248
0.2810396825396826,773.9872397150735,773.8474696403289,0.013938822664871247,0.2315220928337209,0.2624779071662791,0.3547195446076794,2191.155219641025,2799.682834949678
0.2975714285714286,774.4638760343654,774.3275728410987,0.015065784646786538,0.231929829311501,0.262070170688499,0.35471954460767946,2190.440113965129,2838.495036940656
0.3141031746031746,774.9437637097287,774.8103831840533,0.01621577822201082,0.23234589865310804,0.26165410134689193,0.3547195446076795,2189.7103937562106,2876.682536215197
0.33063492063492067,775.4271515123047,775.2964159518165,0.01738883147170198,0.23277031101834567,0.26122968898165433,0.3547195446076796,2188.9660411955706,2914.270645158237
0.34716666666666673,775.9141752688377,775.7859416738866,0.018584982624885497,0.23320308023853065,0.26079691976146935,0.3547195446076797,2188.2070320252546,2951.2830192614365
0.36369841269841274,776.4049143591154,776.2791079340782,0.019804278794425072,0.23364422335916538,0.26035577664083465,0.35471954460767974,2187.433336350132,2987.741801653475
0.38023015873015875,776.8994202354183,776.7760008819131,0.021046775153859967,0.23409376034211626,0.25990623965788373,0.3547195446076798,2186.6449191602264,3023.6677540096143
0.39676190476190476,777.397730790274,777.2766762402413,0.022312534357122053,0.23455171385566662,0.2594482861443334,0.3547195446076799,2185.8417406989333,3059.080374324375
0.4077830687830688,777.7320672576889,777.612581692398,0.023169331765505598,0.2348617043993331,0.25913829560066687,0.35471954460767996,2185.2980660234252,3082.4127049142303
0.4188042328042328,778.0681173605104,777.9501967294948,0.024036521365283572,0.23517545485290214,0.25882454514709785,0.35471954460768,2184.7477970570976,3105.530228864356
0.4298253968253968,778.405889438378,778.28953079128,0.024914126746894822,0.23549297375142866,0.25850702624857136,0.35471954460768007,2184.190918830806,3128.437915717987
0.4408465608465608,778.7453917369152,778.6305928978685,0.025802172741696133,0.23581427007893352,0.2581857299210665,0.3547195446076801,2183.6274155879905,3151.1405472197716
0.45186772486772486,779.0866325073747,778.9733918674902,0.026700685387734378,0.2361393532560198,0.2578606467439802,0.3547195446076802,2183.057270806394,3173.6427272224532
0.4628888888888889,779.4296200688059,779.3179364531857,0.027609691897954418,0.23646823312837037,0.2575317668716296,0.35471954460768024,2182.4804672182377,3195.948890932767
0.47391005291005295,779.7743628466432,779.6642354284322,0.028529220630497062,0.2368009199560017,0.2571990800439983,0.3547195446076803,2181.8969868290656,3218.0633135487024
0.484931216931217,780.1208693964899,780.0122976406337,0.029459301060830362,0.23713742440318078,0.2568625755968192,0.35471954460768035,2181.306810935429,3239.9901183358347
0.495952380952381,780.4691484186272,780.362132044409,0.030399963755516953,0.2374777575289343,0.2565222424710657,0.35471954460768046,2180.7099201415353,3261.733284186288
0.506973544973545,780.8192087667364,780.7137477222111,0.03135124034746083,0.23782193077809274,0.2561780692219073,0.3547195446076805,2180.10629437495,3283.296652700082
0.517994708994709,781.1710594530246,781.0671538970146,0.032313163512504926,0.2381699559728234,0.2558300440271766,0.35471954460768057,2179.495912901451,3304.6839348251406
0.529015873015873,781.5247096511347,781.4223599400552,0.03328576694727091,0.23852184530461282,0.25547815469538715,0.3547195446076806,2178.8787543390877,3325.898717089086
0.5400370370370371,781.8801686977079,781.7793753754969,0.03426908534814756,0.23887761132666477,0.25512238867333525,0.35471954460768074,2178.254796671514,3346.944467453066
0.5510582010582011,782.237446093136,782.1382098832003,0.035263154391344656,0.23923726694668357,0.2547627330533164,0.3547195446076808,2177.6240172606467,3367.824540815274
0.5620793650793652,782.5965515018507,782.4988733003363,0.03626801071393835,0.2396008254200165,0.2543991745799835,0.3547195446076809,2176.98639285869,3388.5421841894736
0.5731005291005292,782.9574947523595,782.8613756223041,0.03728369189584082,0.23996830034313021,0.2540316996568698,0.35471954460768096,2176.341899619579,3409.1005415817067
0.5841216931216933,783.3202858371626,783.2257270032435,0.03831023644263264,0.24033970564739954,0.25366029435260046,0.35471954460768107,2175.6905131098733,3429.5026585864443
0.5951428571428572,783.6849349126388,783.5919377563247,0.039347683769201426,0.2407150555931879,0.2532849444068121,0.3547195446076811,2175.032208319137,3449.7514867216933
0.6061640211640211,784.0514522989536,783.9600183539272,0.04039607418413428,0.24109436476420057,0.2529056352357994,0.35471954460768124,2174.3669596698446,3469.849887520993
0.6171851851851852,784.4198484800279,784.3299794277831,0.04145544887481555,0.24147764806209285,0.2525223519379072,0.3547195446076813,2173.694741026835,3489.8006363987806
0.6282063492063492,784.7901341035969,784.7018317691258,0.0425258498931845,0.24186492070131727,0.2521350792986827,0.3547195446076814,2173.0155257063507,3509.6064263043318
0.6392275132275133,785.1623199813823,785.0755863288805,0.0436073201421108,0.24225619820419428,0.25174380179580574,0.3547195446076815,2172.3292864846817,3529.269871178258
0.6502486772486773,785.5364170894046,785.451254217916,0.044699903362348116,0.24265149639619185,0.2513485036038081,0.35471954460768157,2171.6359956064457,3548.7935092244907
0.6612698412698413,785.9124365684597,785.8288467073747,0.04580364412002897,0.24305083140140138,0.25094916859859867,0.3547195446076817,2170.935624792522,3568.17980600967
0.6722910052910054,786.2903897247993,786.2083752291012,0.046918587794665984,0.2434542196381962,0.2505457803618038,0.3547195446076818,2170.2281452476645,3587.431157400978
0.6833121693121694,786.6702880310547,786.5898513761853,0.048044780567627045,0.24386167781506218,0.2501383221849378,0.3547195446076819,2169.5135276678166,3606.5498923526225
0.6943333333333335,787.0521431274663,786.9732869036425,0.04918226941105385,0.2442732229265882,0.2497267770734118,0.354719544607682,2168.79174224714,3625.53827555042
0.7053544973544974,787.4359668234923,787.3586937292603,0.050331102077195,0.24468887224960703,0.249311127750393,0.3547195446076821,2168.0627586847877,3644.39850992326
0.7163756613756614,787.8217710999041,787.7460839346452,0.05149132708812706,0.2451086433394762,0.24889135666052378,0.35471954460768224,2167.3265461914225,3663.132739029574
0.7273968253968255,788.2095681115011,788.1354697665196,0.05266299372583802,0.24553255402649046,0.24846744597350956,0.35471954460768235,2166.5830734955107,3681.743049326388
0.7384179894179895,788.5993701906319,788.5268636383304,0.053846152022650196,0.24596062241241642,0.24803937758758357,0.35471954460768246,2165.832308849399,3700.2314723279806
0.7494391534391536,788.991189851767,788.9202781322532,0.05504085275196046,0.24639286686714268,0.24760713313285732,0.35471954460768257,2165.074220035192,3718.5999866607094
0.7604603174603175,789.3850397974497,789.3157260017022,0.05624714741927818,0.24682930602543712,0.24717069397456287,0.3547195446076827,2164.308774370436,3736.8505200201057
0.7714814814814815,789.7809329260718,789.7132201744942,0.05746508825354255,0.24726995878380564,0.24673004121619435,0.35471954460768285,2163.5359387136305,3754.984951035958
0.7825026455026456,790.1788823420636,790.1127737568598,0.0586947281987034,0.24771484429744595,0.24628515570255405,0.35471954460768296,2162.755679469571,3773.0051110507097
0.7935238095238095,790.5789013692998,790.5144000385657,0.05993612090555203,0.24816398197729211,0.24583601802270788,0.35471954460768307,2161.9679625945314,3790.912785816198
0.8045449735449736,790.9810035688035,790.9181124994913,0.06118932072379099,0.24861739148714523,0.2453826085128548,0.35471954460768323,2161.172753601295,3808.7097171134337
0.8155661375661376,791.385202762201,791.3239248181291,0.06245438269433542,0.24907509274088813,0.24492490725911187,0.35471954460768335,2160.370017564043,3826.3976042998784
0.8265873015873015,791.7915130629115,791.7318508826248,0.0637313625418427,0.24953710589978262,0.24446289410021738,0.3547195446076835,2159.559719123092,3843.9781057884434
0.8376084656084656,792.1999489177493,792.1419048051958,0.06502031666747261,0.25000345136985,0.24399654863015,0.3547195446076837,2158.7418224894886,3861.4528404622533
0.8486296296296296,792.6105251625903,792.5541009410432,0.06632130214188678,0.25047414979933835,0.24352585020066167,0.3547195446076838,2157.9162914494523,3878.823389029064
0.8596507936507937,793.0232570970757,792.9684539132681,0.06763437669850582,0.25094922207628284,0.24305077792371715,0.35471954460768396,2157.083089368654,3896.0912953191482
0.8706719576719577,793.4381605851449,793.3849786458231,0.06895959872705444,0.2514286893261705,0.24257131067382948,0.3547195446076841,2156.2421791963097,3913.258067530427
0.8816931216931216,793.8552521906931,793.8036904072517,0.07029702726744093,0.2519125729097257,0.24208742709027428,0.3547195446076843,2155.393523469069,3930.325179424674
0.8927142857142858,794.2745493610942,794.2246048689406,0.07164672200403954,0.25240089442084146,0.2415991055791585,0.35471954460768446,2154.5370843146366,3947.2940714787896
0.9037354497354498,794.6960706760931,794.6477381829519,0.07300874326047378,0.2528936756846923,0.24110632431530774,0.3547195446076846,2153.6728234550897,3964.166151995412
0.9147566137566139,795.119836186149,795.0731070863384,0.07438315199503931,0.25339093875607765,0.2406090612439223,0.3547195446076848,2152.8007022097763,3980.9427981776
0.9257777777777778,795.5458678734153,795.5007290413785,0.07577000979695996,0.2538927059180682,0.24010729408193182,0.354719544607685,2151.9206814976947,3997.625357173057
0.9367989417989417,795.974190281146,795.93062242468,0.07716937888374688,0.25439899968104945,0.23960100031895057,0.3547195446076852,2151.0327218391676,4014.215147094355
0.9478201058201058,796.4048313747753,796.3628067829915,0.07858132210003523,0.2549098427823015,0.23909015721769852,0.35471954460768534,2150.1367833565805,4030.7134580231345
0.9551675485008818,796.6932294453738,796.6522127819966,0.07952963452363526,0.25525294359105866,0.2387470564089414,0.3547195446076855,2149.5350384818453,4041.662135123383
0.9625149911816578,796.9826834937708,796.9426530215587,0.08048358260868255,0.2555980833902922,0.2384019166097078,0.3547195446076856,2148.9297175383936,4052.571084552628
0.969862433862434,797.2732061159791,797.23413468032,0.08144318544307456,0.25594526908603127,0.23805473091396875,0.3547195446076858,2148.320808414136,4063.4406690719834
0.9772098765432099,797.5648117407457,797.5266655054198,0.0824084622414762,0.2562945076301693,0.2377054923698307,0.3547195446076859,2147.708298916544,4074.2712465732116
0.9845573192239859,797.8575170499032,797.8202539345265,0.08337943234705895,0.25664580602109377,0.2373541939789062,0.354719544607686,2147.0921767715477,4085.0631702213204
0.991904761904762,798.1513414983903,798.1149092471962,0.08435611523385493,0.25699917130453787,0.23700082869546213,0.3547195446076862,2146.4724296220375,4095.8167886038023
0.999252204585538,798.446307957478,798.4106417531453,0.08533853050987787,0.2573546105747092,0.2366453894252908,0.35471954460768634,2145.849045025889,4106.532445888764
1.006599647266314,798.742443510054,798.7074630271987,0.08632669792120283,0.25771213097576645,0.23628786902423357,0.35471954460768645,2145.2220104533717,4117.210481994693
1.01394708994709,799.0397804331383,799.005386203568,0.08732063735724914,0.25807173970373026,0.23592826029626976,0.3547195446076866,2144.591313283796,4127.8512327751905
1.021294532627866,799.3383574102127,799.3044263459669,0.08832036885757834,0.258433444008943,0.23556655599105694,0.35471954460768673,2143.956940801201,4138.455030222781
1.028641975308642,799.6382210244427,799.6046009152908,0.08932591262060843,0.25879725119922176,0.23520274880077827,0.3547195446076869,2143.318880188826,4149.022202696718
1.035989417989418,799.9394275932834,799.9059303636396,0.09033728901476291,0.25916316864389144,0.23483683135610856,0.35471954460768707,2142.6771185220323,4159.553075180799
1.0470105820105822,800.3939088071072,800.3601440802777,0.09186533480274808,0.2597160178237908,0.23428398217620924,0.3547195446076873,2141.707507981879,4175.282024826685
1.058031746031746,800.8518648878929,800.8171147876977,0.09340662054566284,0.26027365723856544,0.23372634276143456,0.35471954460768756,2140.7294961228963,4190.931098418076
1.06905291005291,801.3136936418399,801.2769800660359,0.0949612177111312,0.2608361127453053,0.23316388725469467,0.3547195446076878,2139.7430375958143,4206.501360585051
1.080074074074074,801.7799292720796,801.7399276734941,0.09652919927196357,0.261403410745679,0.232596589254321,0.35471954460768806,2138.748086096256,4221.993869307608
1.08742151675485,802.0935452050799,802.0503969604307,0.09758199297736177,0.26178431303356137,0.23221568696643863,0.35471954460768823,2138.0800433704508,4232.279533674118
1.094768959435626,802.4096994348201,802.362452453261,0.09864079132300245,0.26216738780898285,0.23183261219101714,0.3547195446076884,2137.40819044307,4242.531424287308
1.102116402116402,802.72871268895,802.6762240776187,0.09970561770192957,0.2625526435355807,0.23144735646441927,0.35471954460768856,2136.7325124702243,4252.749856999903
1.1131375661375662,803.2134490544983,803.1504740692026,0.1013142129056651,0.2631346356107971,0.2308653643892029,0.35471954460768884,2135.7117898736597,4268.015471366162
1.1241587301587301,803.7070874523735,803.629737765855,0.10293651148288785,0.26372158558639436,0.23027841441360566,0.3547195446076891,2134.6823718993296,4283.207620627772
1.135179894179894,804.2116129322702,804.1151240059892,0.10457260604382138,0.26431352696888555,0.22968647303111447,0.35471954460768945,2133.6441997820793,4298.32743447937
1.1462010582010582,804.7294052463182,804.6082071580687,0.10622259891783616,0.2649104967811851,0.22908950321881486,0.35471954460768973,2132.5972085895364,4313.376087029662
1.1572222222222224,805.2631694502973,805.1111496448784,0.10788660595710195,0.2655125369387761,0.22848746306122394,0.35471954460769,2131.5413248085347,4328.354806751687
1.1682433862433863,805.8157686894202,805.6267675576061,0.1095647611362754,0.2661196959138831,0.22788030408611687,0.35471954460769034,2130.476463426413,4343.264882664925
1.1792645502645502,806.3899546339796,806.1584611800698,0.11125722132429118,0.26673203046191424,0.22726796953808578,0.3547195446076907,2129.402524903109,4358.107663834802
1.1902857142857144,806.9880321604302,806.7099440947223,0.112964170045951,0.2673496069824084,0.2266503930175916,0.354719544607691,2128.319392784271,4372.884549829227
1.2013068783068785,807.6115380595619,807.2847756113653,0.1146858187462067,0.2679725019764557,0.2260274980235443,0.35471954460769134,2127.226932899014,4387.596971599031
1.2123280423280425,808.2610293896762,807.8858088421267,0.11642240440242205,0.26860080118280955,0.22539919881719045,0.3547195446076917,2126.124994875046,4402.246364926173
1.2196754850088185,808.7082718186556,808.3019466362553,0.1175885525227805,0.2690227152622504,0.2249772847377496,0.35471954460769195,2125.385023914902,4411.978310051596
1.2270229276895943,809.1665148996428,808.7306754495432,0.11876153195222879,0.26944710091921703,0.224552899080783,0.35471954460769217,2124.64071819637,4421.683277073218
1.2343703703703703,809.6352542675462,809.1718918298626,0.11994142242748575,0.2698739870025698,0.22412601299743018,0.35471954460769245,2123.892027123085,4431.3616590261945
1.2453915343915343,810.356697712973,809.8563286323744,0.12172438933964463,0.2705190670145204,0.2234809329854796,0.35471954460769284,2122.7606582044523,4445.83020652271
1.2564126984126984,811.0981034418352,810.5661395912964,0.12352334389680032,0.2711699313795934,0.2228300686204066,0.3547195446076932,2121.6191444398846,4460.240986862512
1.2674338624338626,811.8571411081894,811.298843001365,0.12533853143607154,0.2718266688611139,0.22217333113888613,0.35471954460769367,2120.4673301524654,4474.595116448368
1.2784550264550265,812.6316188927321,812.0517558731925,0.12717017840396522,0.27248936138775603,0.2215106386122439,0.35471954460769406,2119.305071652181,4488.893627992095
1.2858024691358025,813.1555465043822,812.5636310501535,0.12840052262743773,0.27293450171030975,0.22106549828969027,0.3547195446076944,2118.5243655133495,4498.395545388293
1.2931499118165786,813.6849702642172,813.0826147800814,0.12963832866776548,0.27338234172901216,0.22061765827098784,0.35471954460769467,2117.7389245319314,4507.873436873102
1.3004973544973546,814.2194532331168,813.60806093862,0.13088364660509216,0.27383289956293194,0.22016710043706808,0.354719544607695,2116.948716929929,4517.327557364684
1.3115185185185187,815.0298542722187,814.4071095659451,0.1327658047691033,0.2745138671135091,0.21948613288649088,0.35471954460769545,2115.7544069109426,4531.464699758225
1.3225396825396827,815.8497598307607,815.217783118774,0.1346650899958495,0.27520103126019724,0.21879896873980273,0.35471954460769595,2114.5492290366337,4545.549692913824
1.3335608465608466,816.6783657081,816.0387797198103,0.13658159127076336,0.2758944241980547,0.21810557580194526,0.3547195446076965,2113.333126841932,4559.583285966872
1.3445820105820108,817.515060224334,816.8690884883331,0.1385153485514652,0.2765940603838065,0.2174059396161935,0.35471954460769706,2112.1060749720145,4573.56619644634
1.3519294532627868,818.077115633845,817.4274104380995,0.13981409608719425,0.27706394912383603,0.21693605087616394,0.3547195446076974,2111.2819639999857,4582.8603220979885
1.359276895943563,818.6424458501552,817.9893402650932,0.14112047030736438,0.2775365972093458,0.2164634027906542,0.3547195446076978,2110.453013569821,4592.132429026919
1.3666243386243389,819.2109541580838,818.5547234005176,0.1424344138487916,0.2780119838862526,0.21598801611374738,0.35471954460769817,2109.6192600809195,4601.382712409896
1.3776455026455028,820.0694842103454,819.4089856005938,0.14441931080200665,0.2787301224796099,0.21526987752039015,0.3547195446076988,2108.3597578970925,4615.217636128085
1.3886666666666667,820.9346772318394,820.2703241866592,0.1464205144805858,0.2794541608698287,0.21454583913017128,0.3547195446076994,2107.089908397162,4629.004517841149
1.3996878306878306,821.8062083101155,821.1383599340883,0.14843716919878303,0.2801837894685666,0.2138162105314334,0.35471954460770005,2105.8102545504066,4642.743970548636
1.4107089947089948,822.6836579349457,822.0126701561375,0.15046789355743392,0.28091850848360445,0.21308149151639558,0.3547195446077007,2104.5216729137987,4656.436587874314
1.4180564373897708,823.2716295132451,822.5987699293039,0.15182849609300605,0.2814107764521916,0.21258922354780843,0.35471954460770116,2103.6583122934408,4665.539262874779
1.4254038800705466,823.861733448248,823.1872137896677,0.1531934941743748,0.2819046347356161,0.21209536526438388,0.35471954460770166,2102.7921625108947,4674.621539178522
1.4327513227513229,824.4536563726987,823.7777351561983,0.15456167508503554,0.28239964457128974,0.21160035542871028,0.35471954460770216,2101.9239930867557,4683.683572884507
1.4437724867724868,825.3440246212022,824.6666332967137,0.1566163048674113,0.2831430126032649,0.2108569873967351,0.3547195446077029,2100.6202424342764,4697.2389901406705
1.454793650793651,826.2356147236559,825.5577960887363,0.15866691766369714,0.28388492728385295,0.21011507271614704,0.3547195446077037,2099.319040731627,4710.749649461131
1.465814814814815,827.1256686649224,826.4489002937526,0.1607028365513289,0.28462152568700166,0.20937847431299833,0.3547195446077045,2098.0271629437584,4724.215939976677
1.4768359788359788,828.0103981466425,827.3367138673419,0.162709557145283,0.28534756010519574,0.2086524398948042,0.3547195446077054,2096.753812724583,4737.638160084542
1.4841834215167549,828.5948897521436,827.9247009831005,0.1640222102733322,0.2858224799086727,0.20817752009132726,0.35471954460770594,2095.9208780582735,4746.56191845215
1.4915308641975311,829.1731813766388,828.5078499781613,0.16530756849631711,0.286287524375953,0.207712475624047,0.35471954460770655,2095.1052631790085,4755.466193310922
1.4988783068783071,829.7434826207478,829.0845134483412,0.16655917471571222,0.2867403573194352,0.20725964268056482,0.35471954460770716,2094.3110653925355,4764.350974253198
1.509899470899471,830.5800699949178,829.9336122943929,0.1683598137181902,0.28739183111926564,0.20660816888073436,0.3547195446077081,2093.16848277522,4777.64149651395
1.520920634920635,831.3893381892246,830.7588007249856,0.17005310185907901,0.2880044652218451,0.20599553477815497,0.3547195446077091,2092.0940188803347,4790.887800139173
1.5319417989417992,832.167520177228,831.5556673331943,0.17162842315636165,0.28857441874949935,0.20542558125050064,0.3547195446077101,2091.094410003439,4804.089513978557
1.542962962962963,832.912932606913,832.3214938633811,0.1730833906149169,0.2891008280839355,0.20489917191606452,0.35471954460771116,2090.1711707952372,4817.2462035957105
1.553984126984127,833.625918726286,833.0554515864236,0.17442288324151703,0.2895854584568723,0.20441454154312771,0.35471954460771227,2089.3212053168327,4830.357425687495
1.565005291005291,834.3083772885968,833.7583829060486,0.17565669167654904,0.2900318521361862,0.20396814786381376,0.3547195446077134,2088.5383009873008,4843.422773997414
1.5760264550264549,834.9631545765997,834.4323470159686,0.1767969997596714,0.2904444172527175,0.20355558274728247,0.3547195446077145,2087.814726638213,4856.441910018251
1.587047619047619,835.5935093713772,835.0801229845449,0.17785645788052995,0.29082773073576773,0.20317226926423226,0.3547195446077157,2087.14245505518,4869.414578363448
1.594395061728395,836.0018102317737,835.4989432048877,0.17852379804692428,0.29106917537479937,0.20293082462520062,0.3547195446077165,2086.7189991193104,4878.037121757763
1.601742504409171,836.4016584284036,835.9084160592141,0.17916378730320986,0.2913007244149281,0.20269927558507186,0.3547195446077173,2086.3128985080857,4886.638906910377
1.6090899470899471,836.7939321003013,836.3094366883143,0.17977939074201435,0.29152345063096247,0.20247654936903756,0.35471954460771815,2085.9222717431603,4895.219919965263
1.616437389770723,837.1794450585721,836.7028557480818,0.18037329268571878,0.29173832521462884,0.2022616747853712,0.35471954460771904,2085.545415506939,4903.780161259041
1.6237848324514992,837.5589436532375,837.0894690523351,0.1809479076236726,0.2919462217316719,0.2020537782683281,0.35471954460771987,2085.180797702453,4912.319644045782
1.6311322751322752,837.9331072386698,837.4700124146954,0.18150539865039705,0.29214792279282337,0.20185207720717666,0.35471954460772076,2084.8270457535236,4920.8383932222505
1.6384797178130512,838.3025509253215,837.8451602331829,0.18204769937236057,0.2923441279797048,0.20165587202029517,0.3547195446077217,2084.4829327039783,4929.3364441011245
1.6458271604938275,838.6678296688444,838.2155266385514,0.18257653673590482,0.2925354621040048,0.20146453789599528,0.3547195446077226,2084.147362732351,4937.813841260428
1.6531746031746033,839.0294430344886,838.5816682950733,0.18309345325828433,0.2927224832507005,0.2012775167492995,0.35471954460772354,2083.8193570453363,4946.270637483745
1.6605220458553793,839.387840191316,838.9440881763071,0.18359982782906853,0.29290569030403607,0.20109430969596395,0.3547195446077245,2083.498040678406,4954.706892796687
1.6678694885361551,839.7434248484074,839.3032398298002,0.18409689468585946,0.293085529812964,0.20091447018703598,0.3547195446077254,2083.182630454907,4963.12267359899
1.6752169312169312,840.0965599575323,839.659531794904,0.18458576043881914,0.29326240215064414,0.20073759784935585,0.3547195446077264,2082.8724241832647,4971.5180518880725
1.6825643738977074,840.44757208414,840.0133319513948,0.18506741917581312,0.2934366669795065,0.2005633330204935,0.3547195446077274,2082.566791072125,4979.893104567693
1.6899118165784832,840.7967554006187,840.3649716598887,0.18554276576577486,0.2936086480644276,0.20039135193557236,0.3547195446077284,2082.2651632887973,4988.2479128344585
1.6972592592592592,841.1443752899628,840.7147496145918,0.18601260751985807,0.2937786374917526,0.20022136250824746,0.3547195446077295,2081.9670285597563,4996.58256163457
1.7046067019400353,841.4906715690955,841.0629353700227,0.18647767438318133,0.2939468993566828,0.20005310064331724,0.3547195446077305,2081.671923703541,5004.897139183363
1.711954144620811,841.835861353778,841.4097725310534,0.18693862782901302,0.29411367298120505,0.19988632701879494,0.35471954460773153,2081.379428987013,5013.1917365406325
1.7193015873015873,842.1801415935249,841.7554816132891,0.18739606861645464,0.29427917572083273,0.1997208242791673,0.35471954460773264,2081.089163202776,5021.466447235271
1.7266490299823634,842.5236913077389,842.1002625915926,0.18785054355864178,0.2944436054133504,0.19955639458664956,0.35471954460773375,2080.8007793744605,5029.721366933332
1.7339964726631394,842.8666735545052,842.4442971604258,0.1883025514325957,0.2946071425170071,0.1993928574829929,0.35471954460773486,2080.513961006671,5037.956593144301
1.7413439153439156,843.2092371622508,842.7877507323177,0.18875254814617232,0.2947699519799255,0.1992300480200745,0.35471954460773597,2080.228418806333,5046.172224960912
1.7486913580246917,843.5515182524133,843.1307742012465,0.1892009512629634,0.2949321848772181,0.1990678151227819,0.35471954460773714,2079.943887811453,5054.368362828399
1.7560388007054675,843.89364157866,843.4735054968194,0.18964814397205318,0.2950939798472508,0.19890602015274925,0.3547195446077383,2079.6601248721336,5062.5451083396165
1.7633862433862435,844.2357217057591,843.8160709535902,0.19009447857844536,0.29525546435448413,0.19874453564551584,0.35471954460773947,2079.3769064357516,5070.70256405287
1.7707336860670193,844.5778640484923,844.1585865177708,0.1905402795788237,0.2954167558022887,0.1985832441977113,0.3547195446077407,2079.0940265952545,5078.840833329714
1.7780811287477956,844.9201657886456,844.5011588114385,0.19098584637862362,0.2955779625159846,0.19842203748401538,0.3547195446077419,2078.8112953650616,5086.960020190363
1.7854285714285716,845.2627166863531,844.8438860724536,0.19143145570059908,0.29573918461426524,0.19826081538573478,0.3547195446077432,2078.5285371527257,5095.060229184608
1.7927760141093476,845.6055998026133,845.1868589878213,0.19187736373965636,0.2959005147888188,0.1980994852111812,0.3547195446077444,2078.2455893915994,5103.141565276485
1.8001234567901239,845.9488921617501,845.5301614448539,0.19232380817370637,0.29606203903185785,0.19793796096814215,0.35471954460774574,2077.9623012648613,5111.204133741264
1.8074708994708997,846.2926654598601,845.873871271742,0.19277101048390277,0.2962238374755847,0.19777616252441535,0.354719544607747,2077.678532233229,5119.248040074207
1.8148183421516757,846.6369873685463,846.2180613140551,0.19321918099796037,0.29638598621687107,0.1976140137831289,0.35471954460774835,2077.3941488347514,5127.273389914616
1.8221657848324515,846.9819264934071,846.5628027547103,0.19366854015614388,0.29654856501132437,0.19745143498867562,0.3547195446077497,2077.1090111906346,5135.280289010471
1.8295132275132275,847.3275779838733,846.9081812765867,0.19411943096032339,0.296711697957518,0.197288302042482,0.35471954460775107,2076.8229016514906,5143.268843370797
1.8368606701940038,847.6741956754953,847.2543802336876,0.1945728994881345,0.2968757635278561,0.1971242364721439,0.35471954460775246,2076.535156436229,5151.239160401592
1.8405343915343917,847.848101237951,847.4279435826828,0.1948016045389676,0.2969585093465908,0.1970414906534092,0.3547195446077532,2076.3900332798307,5155.217515035438
1.8442081128747796,848.0226736464482,847.6019972475627,0.1950327710674626,0.29704214573150967,0.19695785426849033,0.35471954460775384,2076.2433482103634,5159.191354413649
1.8478818342151677,848.198087009334,847.7766852422237,0.19526706512380335,0.29712691366053423,0.19687308633946576,0.35471954460775457,2076.094678590441,5163.160696015176
1.8497186948853617,848.2858728055822,847.8641584887995,0.1953842337092202,0.29716930542448955,0.19683069457551047,0.35471954460775496,2076.0203301014835,5165.143685422336
1.8506371252204588,848.3294886347129,847.9077696169961,0.19544143775232334,0.2971900019301603,0.1968099980698397,0.3547195446077551,2075.984031684533,5166.13476014526
1.8515555555555556,848.3725502906187,847.9510955938428,0.1954960116297176,0.29720974683806706,0.19679025316193294,0.3547195446077553,2075.949402220446,5167.1255543093985
1.8524739858906525,848.4146246728781,847.9938929347186,0.19554597159421344,0.29722782242560264,0.19677217757439738,0.3547195446077555,2075.917700481832,5168.11606665422
1.8533924162257496,848.4553909928379,848.035963224976,0.19558989967087873,0.29724371566738217,0.19675628433261783,0.3547195446077557,2075.8898262345556,5169.106295163376
1.8543108465608467,848.4949053270452,848.0772960286395,0.1956281717896393,0.2972575625753976,0.19674243742460243,0.35471954460775584,2075.8655409349685,5170.09623755527
1.8552292768959435,848.5335144738748,848.1180375800122,0.19566251457502506,0.29726998784490516,0.1967300121550948,0.354719544607756,2075.8437489658077,5171.085891969309
1.8561477072310406,848.5715748053983,848.1583530526168,0.19569466001462152,0.2972816181115228,0.19671838188847723,0.35471954460775623,2075.823351306722,5172.075257242899
1.8570661375661377,848.6093216424615,848.1983572994346,0.19572573539567384,0.2972928612294088,0.1967071387705912,0.3547195446077564,2075.803632645642,5173.0643327751795
1.8589029982363316,848.6843213456017,848.2776690708439,0.19578676125345507,0.29731494047316687,0.1966850595268331,0.3547195446077568,2075.764909123486,5175.04161372479
1.8662504409171075,848.9813943357651,848.5883653987122,0.19603071649194803,0.29740320383189034,0.19659679616810968,0.35471954460775823,2075.610109069438,5182.939138374781
1.8735978835978837,849.2756945718673,848.8916608545716,0.1962775228204612,0.2974924987191137,0.19650750128088632,0.35471954460775973,2075.453499876582,5190.818138580145
1.8809453262786597,849.5684580225726,849.1902799866951,0.19652712375175507,0.2975828046976718,0.1964171953023282,0.3547195446077613,2075.2951173884935,5198.678678573268
1.8882927689594358,849.8605265237283,849.4860722706421,0.1967794973732489,0.2976741138395613,0.19632588616043867,0.3547195446077628,2075.134975509643,5206.520837107116
1.895640211640212,850.1524848046158,849.7803027036916,0.1970346826045067,0.2977664402259368,0.19623355977406318,0.3547195446077644,2074.9730495439003,5214.344702736176
1.902987654320988,850.4447384241156,850.0738379352724,0.19729273547271525,0.29785980412751567,0.19614019587248435,0.35471954460776595,2074.8093039396135,5222.150370505264
1.9103350970017638,850.7375701895669,850.3672736514028,0.1975537181867852,0.2979542280515718,0.19604577194842818,0.35471954460776756,2074.643699222562,5229.937939673393
1.9176825396825399,851.0311792882134,850.6610213831846,0.1978176959103646,0.2980497355744076,0.19595026442559238,0.3547195446077692,2074.47619404362,5237.7075121660855
1.9250299823633157,851.3257080640202,850.9553675685734,0.1980847355123783,0.2981463508892969,0.1958536491107031,0.35471954460777083,2074.3067459715885,5245.459191527405
1.932377425044092,851.6212602577577,851.2505137069827,0.1983549049367135,0.29824409857843653,0.1957559014215635,0.35471954460777255,2074.135311893158,5253.193082212099
1.939724867724868,851.9179134109727,851.546603647202,0.19862827282799292,0.29834300347755044,0.19565699652244958,0.3547195446077742,2073.9618482503747,5260.909289108464
1.947072310405644,852.2157272949236,851.8437421249956,0.198904908293723,0.2984430905898346,0.19555690941016546,0.35471954460777594,2073.786311191563,5268.607917217605
1.9544197530864202,852.5147496359676,852.1420073524048,0.1991848807501306,0.2985443850301804,0.1954556149698196,0.3547195446077777,2073.608656669153,5276.289071438614
1.961767195767196,852.8150200036256,852.441459565068,0.1994682598232617,0.2986469119893922,0.19535308801060783,0.3547195446077795,2073.4288405024336,5283.952856425425
1.969114638447972,853.1165724504799,852.7421468238385,0.1997551152868945,0.298750696711724,0.195249303288276,0.35471954460778127,2073.246818416953,5291.599376492214
1.9764620811287479,853.419437304533,853.0441089519311,0.20004551702546544,0.29885576448146617,0.1951442355185338,0.3547195446077831,2073.062546068041,5299.228735551591
1.983809523809524,853.7236423862815,853.3473802064295,0.20033953501410945,0.29896214061572396,0.19503785938427604,0.354719544607785,2072.8759790534755,5306.841037074994
1.9911569664903002,854.0292138353554,853.6519910909126,0.20063723930998928,0.29906985046128026,0.1949301495387197,0.3547195446077869,2072.687072918984,5314.4363840680735
1.998504409171076,854.3361766723997,853.9579695854936,0.20093870005170317,0.2991789193943816,0.1948210806056184,0.35471954460778876,2072.4957831586207,5322.014879056198
2.005851851851852,854.6445551813462,854.265341981747,0.20124398746379615,0.29928937282237006,0.19471062717762994,0.3547195446077907,2072.3020652119017,5329.576624076804
2.013199294532628,854.9543731700592,854.5741334498691,0.2015531718652769,0.29940123618676495,0.19459876381323507,0.35471954460779265,2072.1058744584016,5337.121720676348
2.020546737213404,855.2656541484528,854.8843684243243,0.20186632368032928,0.29951453496713787,0.19448546503286213,0.35471954460779465,2071.907166210959,5344.65026991037
2.02789417989418,855.5784214508517,855.1960708666179,0.2021835134511355,0.2996292946857526,0.19437070531424738,0.35471954460779664,2071.705895707535,5352.162372345649
2.035241622574956,855.8926983205102,855.5092644448163,0.20250481185172695,0.29974554091257616,0.1942544590874238,0.3547195446077987,2071.5020181024283,5359.6581280637565
2.0425890652557324,856.2085079686466,855.8239726568004,0.20283028970305353,0.2998632992707308,0.19413670072926922,0.35471954460780075,2071.2954884567107,5367.137636665567
2.049936507936508,856.5258736161738,856.1402189154113,0.20316001798857986,0.2999825954421368,0.1940174045578632,0.35471954460780286,2071.0862617283324,5374.6009972763895
2.057283950617284,856.8448185238784,856.4580266079241,0.2034940678708609,0.30010345517350967,0.19389654482649032,0.354719544607805,2070.8742927616013,5382.048308551529
2.06463139329806,857.1653660147117,856.7774191381363,0.20383251070836272,0.30022590428244583,0.19377409571755416,0.3547195446078072,2070.659536276514,5389.479668682126
2.071978835978836,857.4875394908506,857.0984199567667,0.20417541807286446,0.3003499686637187,0.19365003133628134,0.35471954460780936,2070.4419468577075,5396.89517540119
2.0793262786596123,857.8113624472675,857.4210525840035,0.20452286176735787,0.3004756742957546,0.19352432570424538,0.35471954460781163,2070.2214789431073,5404.294925989747
2.086673721340388,858.1368584829904,857.7453406267953,0.20487491384443535,0.300603047247286,0.193396952752714,0.35471954460781385,2069.998086812255,5411.679017283084
2.0940211640211643,858.4640513108434,858.0713077926339,0.20523164662509016,0.300732113684153,0.19326788631584704,0.3547195446078162,2069.771724574382,5419.047545677047
2.1013686067019406,858.7929647661971,858.3989779010093,0.2055931327178991,0.30086289987624376,0.19313710012375626,0.3547195446078185,2069.5423461562336,5426.400607134367
2.1087160493827164,859.1236228151439,858.7283748933673,0.2059594450387713,0.30099543220464,0.19300456779536004,0.35471954460782085,2069.309905289541,5433.7382971910265
2.116063492063492,859.4560495623008,859.0595228420889,0.2063306568310789,0.30112973716889974,0.1928702628311003,0.3547195446078233,2069.074355498245,5441.060710962641
2.123410934744268,859.7902692583801,859.3924459588427,0.20670684168602751,0.3012658413944278,0.19273415860557214,0.35471954460782573,2068.8356500855716,5448.367943150859
2.1307583774250443,860.1263063077494,859.7271686026103,0.2070880735637837,0.3014037716401197,0.19259622835988022,0.3547195446078282,2068.5937421206263,5455.660088049777
2.1381058201058205,860.4641852759441,860.0637152875079,0.20747442681479542,0.30154355480607525,0.19245644519392474,0.3547195446078307,2068.348584424863,5462.937239552365
2.1454532627865963,860.8039308971988,860.4021106905042,0.20786597620141953,0.30168521794142333,0.19231478205857666,0.3547195446078332,2068.100129558362,5470.199491156909
2.152800705467372,861.1455680821256,860.7423796591711,0.20826279692025554,0.30182878825240267,0.19217121174759733,0.35471954460783583,2067.848329805658,5477.446935973471
2.160148148148148,861.4891219253996,861.0845472194299,0.2086649646244498,0.3019742931104312,0.19202570688956877,0.35471954460783844,2067.5931371615884,5484.679666730365
2.167495590828924,861.8346177136253,861.4286385834068,0.20907255544667805,0.3021217600604213,0.19187823993957867,0.3547195446078411,2067.3345033167066,5491.89777578064
2.1748430335097004,862.1820809332547,861.7746791573474,0.2094856460221938,0.3022712168291188,0.19172878317088124,0.35471954460784383,2067.07237964266,5499.101355108595
2.1821904761904762,862.5315372786629,862.1226945496524,0.20990431351238018,0.3024226913336237,0.1915773086663763,0.35471954460784655,2066.806717177244,5506.290496336308
2.189537918871252,862.8830126603049,862.472710579007,0.21032863562843043,0.3025762116899585,0.19142378831004148,0.3547195446078493,2066.537466609377,5513.465290730184
2.196885361552028,863.2365332129873,862.8247532826165,0.21075869065532424,0.30273180622174223,0.1912681937782578,0.35471954460785216,2066.264578263883,5520.625829207531
2.204232804232804,863.5921253042792,863.1788489245685,0.2111945574761709,0.30288950346899807,0.19111049653100196,0.35471954460785504,2065.988002086049,5527.772202343151
2.2115802469135803,863.9498155429301,863.5350240042453,0.21163631559635718,0.30304933219689006,0.1909506678031099,0.35471954460785793,2065.7076876263,5534.904500375965
2.218927689594356,864.3096307875142,863.8933052649046,0.21208404516846432,0.30321132140473844,0.19078867859526155,0.3547195446078609,2065.4235840243878,5542.022813215657
2.2262751322751324,864.6715981550115,864.2537197022756,0.21253782701664795,0.3033755003348396,0.19062449966516037,0.3547195446078639,2065.135639993922,5549.12723044935
2.2336225749559087,865.035745029587,864.616294573294,0.2129977426616991,0.303541898481534,0.19045810151846604,0.354719544607867,2064.8438038064664,5556.217841348301
2.2409700176366845,865.4020990713927,864.9810574049021,0.21346387434593966,0.3037105456002127,0.1902894543997873,0.3547195446078701,2064.5480232757436,5563.29473487463
2.2483174603174603,865.7706882254151,865.3480360028994,0.2139363050581203,0.303881471716326,0.19011852828367398,0.3547195446078732,2064.2482457418346,5570.357999688083
2.255664902998236,866.1415407304141,865.7172584608788,0.2144151185584949,0.30405470713445515,0.18994529286554485,0.3547195446078764,2063.944418055268,5577.407724152808
2.2630123456790123,866.5146851278955,866.0887531692126,0.2149003994038298,0.3042302824473606,0.18976971755263938,0.35471954460787963,2063.6364865611527,5584.4439963441755
2.2703597883597886,866.8901502711211,866.4625488240794,0.21539223297237178,0.30440822854501587,0.18959177145498415,0.35471954460788296,2063.324397083331,5591.466904055618
2.2777072310405644,867.2679653341678,866.8386744365479,0.21589070548882835,0.3045885766236449,0.18941142337635508,0.3547195446078863,2063.008094908532,5598.476534805512
2.2850546737213406,867.6481598210152,867.2171593416913,0.21639590404927292,0.3047713581947334,0.1892286418052666,0.3547195446078897,2062.6875247705625,5605.472975844069
2.292402116402117,868.030763574666,867.5980332077402,0.216907916645996,0.3049566050940194,0.1890433949059806,0.3547195446078931,2062.362630834545,5612.456314160286
2.2997495590828927,868.4158067862695,867.9813260452537,0.2174268321921684,0.305144349490417,0.188855650509583,0.3547195446078967,2062.033356681261,5619.426636488891
2.307097001763669,868.8033200042532,868.3670682163001,0.21795274054637132,0.3053346238948911,0.18866537610510895,0.35471954460790023,2061.6996452915896,5626.384029317352
2.3144444444444447,869.1933341434967,868.7552904436765,0.2184857325371118,0.305527461169327,0.188472538830673,0.35471954460790384,2061.361439030951,5633.32857889289
2.3217918871252206,869.5858804944836,869.1460238201182,0.21902589998706615,0.30572289453530216,0.18827710546469786,0.3547195446079075,2061.0186796339217,5640.260371229533
2.329139329805997,869.9809907324984,869.5392998175473,0.219573335737324,0.3059209575828572,0.1880790424171428,0.3547195446079113,2060.6713081888506,5647.179492115204
2.3364867724867726,870.3786969267525,869.93515029628,0.2201281336711425,0.30612168427909064,0.18787831572090932,0.35471954460791505,2060.3192651227882,5654.086027118824
2.343834215167549,870.7790315495635,870.3336075142623,0.22069038873777014,0.30632510897677817,0.18767489102322182,0.35471954460791894,2059.9624901863676,5660.98006159745
2.351181657848325,871.182027485522,870.7347041363066,0.22126019697601798,0.30653126642290074,0.18746873357709928,0.3547195446079228,2059.6009224388463,5667.861680703452
2.358529100529101,871.5877180406375,871.1384732433122,0.22183765553755808,0.306740191767074,0.18725980823292598,0.3547195446079268,2059.234500233325,5674.730969391696
2.3658765432098767,871.9961195940057,871.5449376567233,0.22242278753815778,0.30695189337261614,0.18704810662738386,0.35471954460793087,2058.863208901859,5681.588012339452
2.3732239858906525,872.4072800565444,871.9541363935739,0.22301576125833125,0.3071664321236609,0.1868335678763391,0.354719544607935,2058.486941663249,5688.432893951985
2.380571428571429,872.8212383715596,872.3661078181638,0.2236166923990049,0.30738384988097117,0.1866161501190288,0.3547195446079392,2058.1056251003,5695.265698640097
2.387918871252205,873.2380300623496,872.7808880698371,0.22422568186087102,0.3076041831505636,0.1863958168494364,0.3547195446079434,2057.719195187198,5702.086510654399
2.395266313932981,873.6576908978535,873.1985132313274,0.2248428318620669,0.3078274689151083,0.18617253108489173,0.35471954460794775,2057.3275870621533,5708.8954140882925
2.4026137566137566,874.0802569831355,873.6190195198175,0.22546824595101334,0.3080537446385739,0.18594625536142612,0.3547195446079522,2056.9307350192557,5715.692492883071
2.4099611992945325,874.5057648220005,874.0424434163634,0.22610202902038046,0.3082830482712805,0.18571695172871952,0.3547195446079566,2056.5285724996106,5722.477830833897
2.4173086419753087,874.9342513611177,874.4688217543792,0.22674428732183974,0.3085154182552367,0.1854845817447633,0.3547195446079612,2056.121032081979,5729.251511596355
2.424656084656085,875.3657540218892,874.8981917809471,0.22739512848137264,0.3087508935296786,0.1852491064703214,0.3547195446079658,2055.7080454730626,5736.01361869341
2.4320035273368608,875.8003107242131,875.330591200115,0.22805466151498227,0.308989513536754,0.185010486463246,0.3547195446079705,2055.2895434975358,5742.764235522611
2.439350970017637,876.2379599048961,875.7660582042637,0.22872299684470365,0.3092313182273152,0.18476868177268482,0.3547195446079753,2054.865456087885,5749.503445363478
2.446698412698413,876.6787405325496,876.2046314975887,0.22940024631484152,0.30947634806679364,0.18452365193320638,0.3547195446079801,2054.4357122741053,5756.231331384995
2.4540458553791886,877.1226921201841,876.6463503143857,0.23008652320838732,0.30972464404113975,0.18427535595886024,0.3547195446079851,2054.0002401732836,5762.947976653197
2.461393298059965,877.5698547363128,877.0912544339212,0.23078194226358037,0.3099762476628148,0.18402375233718524,0.3547195446079901,2053.5589669790897,5769.653464138799
2.4687407407407407,878.0202690150976,877.5393841930742,0.23148661969058873,0.3102312009768258,0.18376879902317417,0.3547195446079952,2053.111818951192,5776.347876724878
2.476088183421517,878.4739761658959,877.9907804975337,0.23220067318829188,0.3104895465667981,0.1835104534332019,0.3547195446080004,2052.6587214046062,5783.031297214585
2.483435626102293,878.9310179824431,878.4454848320745,0.23292422196114979,0.3107513275610778,0.18324867243892218,0.3547195446080057,2052.199598698995,5789.7038083388725
2.490783068783069,879.3914368518263,878.9035392702549,0.23365738673614736,0.3110165876388631,0.18298341236113685,0.3547195446080111,2051.7343742279118,5796.365492764254
2.498130511463845,879.8552757633553,879.3649864837673,0.2344002897798043,0.3112853710363579,0.18271462896364207,0.3547195446080166,2051.2629704080096,5803.016433100584
2.5054779541446206,880.3225783173975,879.8298697515922,0.23515305491523986,0.31155772255294617,0.18244227744705388,0.35471954460802213,2050.7853086682126,5809.656711908852
2.512825396825397,880.7933887342223,880.2982329690569,0.23591580753928515,0.311833687557383,0.18216631244261705,0.35471954460802785,2050.3013094388575,5816.286411708992
2.520172839506173,881.2677518628851,880.7701206568636,0.23668867463963328,0.3121133119939997,0.18188668800600025,0.3547195446080336,2049.810892140811,5822.905614987723
2.527520282186949,881.745713190171,881.2455779701323,0.23747178481201933,0.31239664238891973,0.1816033576110803,0.35471954460803945,2049.3139751745675,5829.514404206399
2.534867724867725,882.2273188496098,881.7246507074877,0.23826526827742095,0.3126837258562813,0.1813162741437187,0.35471954460804545,2048.810475909336,5836.112861808883
2.5422151675485014,882.7126156305712,882.2073853202062,0.2390692568992703,0.3129746101044652,0.1810253898955348,0.35471954460805155,2048.300310672117,5842.701070229445
2.549562610229277,883.2016509874456,882.6938289214377,0.23988388420066803,0.31326934344232277,0.18073065655767723,0.3547195446080577,2047.783394736782,5849.279111900673
2.556910052910053,883.6944730489122,883.1840292955101,0.2407092853815895,0.31356797478540094,0.18043202521459908,0.35471954460806404,2047.2596423131508,5855.847069261426
2.564257495590829,884.1911306272979,883.6780349073189,0.24154559733607234,0.31387055366216077,0.1801294463378392,0.3547195446080705,2046.7289665360904,5862.405024764787
2.571604938271605,884.6916732280256,884.1758949118075,0.24239295866937438,0.3141771302201855,0.1798228697798145,0.354719544608077,2046.1912794546247,5868.953060886059
2.5789523809523813,885.1961510591536,884.6776591635377,0.24325150971509116,0.3144877552323732,0.1795122447676268,0.35471954460808364,2045.6464920210726,5875.49126013078
2.586299823633157,885.7046150410038,885.183378226351,0.24412139255221998,0.31480248010311096,0.17919751989688903,0.3547195446080904,2045.0945140802214,5882.019705042771
2.5936472663139334,886.2171168158789,885.6931033831224,0.24500275102215874,0.31512135687442494,0.17887864312557505,0.35471954460809735,2044.5352543585393,5888.5384782122055
2.6009947089947096,886.7337087578661,886.2068866456027,0.24589573074562485,0.31544443823210166,0.17855556176789836,0.35471954460810434,2043.9686204534405,5895.047662283709
2.6083421516754854,887.2544439827263,886.724780764351,0.24680047913948164,0.3157717775117758,0.17822822248822415,0.3547195446081115,2043.3945188226073,5901.547339964492
2.6156895943562612,887.7793763578661,887.2468392387535,0.24771714543345677,0.31610342870497915,0.17789657129502087,0.35471954460811883,2042.8128547733818,5908.037594032516
2.623037037037037,888.30856051239,887.7731163271297,0.24864588068673635,0.31643944646514394,0.17756055353485606,0.35471954460812627,2042.2235324522364,5914.518507344683
2.6303844797178133,888.8420518472306,888.3036670569196,0.24958683780441976,0.3167798861135568,0.1772201138864432,0.3547195446081338,2041.6264548343327,5920.990162845065
2.6377319223985896,889.3799065453508,888.838547234953,0.2505401715538165,0.3171248036452544,0.17687519635474558,0.35471954460814153,2041.0215237131795,5927.452643573163
2.6450793650793654,889.9221815820194,889.3778134577964,0.2515060385805679,0.31747425573485677,0.17652574426514325,0.3547195446081494,2040.4086396904047,5933.906032672202
2.652426807760141,890.4689347351489,889.9215231221748,0.25248459742457274,0.31782829974232896,0.17617170025767104,0.3547195446081574,2039.7877021656475,5940.35041339746
2.659774250440917,891.0202245956945,890.4697344354638,0.25347600853569846,0.3181869937186655,0.1758130062813345,0.35471954460816557,2039.1586093265907,5946.785869124633
2.6671216931216932,891.5761105781069,891.022506426249,0.25448043428925315,0.3185503964114881,0.17544960358851192,0.3547195446081739,2038.5212581391422,5953.212483358236
2.6744691358024695,892.1366529308306,891.5798989549468,0.2554980390011974,0.3189185672705493,0.17508143272945076,0.3547195446081824,2037.8755443377831,5959.630339740037
2.6818165784832453,892.7019127468387,892.141972724482,0.2565289889430688,0.3192915664531323,0.17470843354686771,0.354719544608191,2037.2213624160968,5966.039522057536
2.6891640211640215,893.2719519741938,892.7087892910159,0.25757345235659374,0.31966945482933745,0.17433054517066252,0.3547195446081998,2036.5586056174975,5972.440114252468
2.696511463844798,893.8468334266191,893.2804110747164,0.25863159946795367,0.3200522939872439,0.1739477060127561,0.3547195446082088,2035.8871659261777,5978.832200429361
2.7038589065255736,894.4266207940658,893.8569013705629,0.2597036025016758,0.320440146237935,0.173559853762065,0.354719544608218,2035.2069340582937,5985.215864864111
2.7112063492063494,895.011378653251,894.4383243591745,0.26078963569410957,0.32083307462037447,0.17316692537962555,0.3547195446082273,2034.517799453415,5991.59119201261
2.718553791887125,895.6011724781417,895.0247451176504,0.2618898753064473,0.321231142906117,0.17276885709388304,0.35471954460823685,2033.8196502662604,5997.958266519403
2.7259012345679015,896.1960686503472,895.6162296304057,0.2630044996372414,0.3216344156038372,0.1723655843961628,0.35471954460824656,2033.1123733587574,6004.31717322638
2.7332486772486777,896.7961344693749,896.2128447999854,0.2641336890343613,0.3220429579636555,0.17195704203634452,0.35471954460825644,2032.3958542924536,6010.667997181504
2.7405961199294535,897.4014381626869,896.8146584578335,0.2652776259063234,0.32245683598123737,0.1715431640187626,0.35471954460826655,2031.6699773213275,6017.0108236475735
2.7479435626102293,898.0120725131749,897.4217362832159,0.2664365991972919,0.32287611639715436,0.1711238836028457,0.3547195824081226,2030.9345590979242,6023.345738103564
2.755291005291005,898.6290753682742,898.0342914959672,0.26761456144508433,0.3233008661361392,0.17069913386386085,0.35472102111700055,2030.1870915676036,6029.672830562293
2.7626384479717814,899.2535928597141,898.6531863165161,0.268814679765045,0.3237311523949733,0.17026884760502672,0.3547249394050391,2029.4255650599462,6035.992205311726
2.7699858906525576,899.886098408373,899.2792412858845,0.27003739061696974,0.32416704510457434,0.16983295489542563,0.35473142525310686,2028.6497026225063,6042.303974042979
2.7773333333333334,900.5269710605081,899.9130579666412,0.2712831516081801,0.3246086167239876,0.16939138327601239,0.35474057176515067,2027.8592138838264,6048.608252459216
2.7846807760141097,901.1765308761983,900.5550982389815,0.27255243852080535,0.32505594170839286,0.1689440582916071,0.3547524766246543,2027.0537969397553,6054.905159397019
2.792028218694885,901.8350619055178,901.2057357191732,0.27384574349920326,0.32550909616502477,0.16849090383497523,0.35476724178292485,2026.2331395036056,6061.194816278383
2.7993756613756613,902.5028271214154,901.8652891102654,0.27516357399449387,0.3259681576306031,0.16803184236939694,0.3547849732997929,2025.396919575894,6067.477346776836
2.8067231040564375,903.1800781422472,902.5340438485954,0.27650645220308173,0.32643320492686884,0.1675667950731312,0.3548057812849332,2024.5448058006216,6073.752876622348
2.8140705467372134,903.8670615795999,903.2122661721883,0.27787491482704096,0.32690431806571035,0.16709568193428967,0.3548297799060453,2023.6764576173214,6080.021533496346
2.8214179894179896,904.5640231994872,903.9002122851034,0.2792695130431781,0.32738157818491753,0.16661842181508243,0.3548570874419064,2022.7915252806874,6086.283446985347
2.828765432098766,905.2712106643789,904.5981343498104,0.2806908126054406,0.3278650675016243,0.16613493249837566,0.35488782636598065,2021.8896497955934,6092.538748572826
2.836112874779541,905.9888753498478,905.3062844287826,0.2821393940291809,0.328354869274125,0.165645130725875,0.3549221234512691,2020.9704628001691,6098.787571656114
2.8434603174603175,906.7172735508083,906.024917100406,0.28361585282007457,0.3288510677646686,0.1651489322353314,0.35496010989033905,2020.0335864205417,6105.03005157969
2.8508077601410933,907.4566672742775,906.7542912174514,0.28512079971794746,0.3293537481964207,0.16464625180357928,0.3550019214265786,2019.0786331161173,6111.266325679107
2.8581552028218695,908.2073247358153,907.4946711097263,0.286654860927827,0.3298629966971602,0.16413700330283978,0.35504769849409507,2018.1052055329683,6117.49653333161
2.8655026455026458,908.9695206200785,908.2463274241805,0.2882186783075792,0.3303789002203324,0.1636210997796676,0.355097586364549,2017.1128963847707,6123.7208160104965
2.8728500881834216,909.743536121452,909.0095377250467,0.28981290947301613,0.3309015464304518,0.16309845356954822,0.3551517352997795,2016.101288386108,6129.939317340702
2.880197530864198,910.5296587400195,909.7845869300061,0.29143822776566486,0.33143102353382325,0.16256897646617677,0.3552103007094216,2015.0699542729244,6136.152183153145
2.887544973544974,911.3281817633674,910.5717676271248,0.2930953220023746,0.3319674200259283,0.16203257997407172,0.3552734433129278,2014.0184569614073,6142.359561534815
2.89489241622575,912.1394033071416,911.37138029558,0.29478489588427065,0.3325108243116339,0.16148917568836607,0.3553413293055178,2012.9463499230353,6148.561602870625
2.902239858906526,912.9636247053312,912.1837334371323,0.29650766687653196,0.3330613241304381,0.16093867586956187,0.3554141305276349,2011.853177895403,6154.758459871305
2.909587301587302,913.8011479181716,913.0091436121772,0.298264364265982,0.3336190056811499,0.16038099431885014,0.3554920246374992,2010.738478114766,6160.950287578755
2.9169347442680778,914.6522714355763,913.8479353618541,0.3000557259378478,0.334183952280482,0.15981604771951802,0.3555751952863421,2009.601782361324,6167.137243335909
2.924282186948854,915.5172838568966,914.7004409836535,0.30188249314983306,0.3347562422948102,0.1592437577051898,0.3556638322958992,2008.442620275296,6173.319486701132
2.93162962962963,916.3964538604059,915.5670001078652,0.30374540216282137,0.3353359459327969,0.1586640540672031,0.3557581318377623,2007.260524667597,6179.497179276286
2.9389770723104056,917.2900145399569,916.4479589855971,0.3056451709216048,0.3359231202455779,0.1580768797544221,0.3558582966142615,2006.0550399714878,6185.67048440051
2.9463245149911814,918.1981389325698,917.3436693185422,0.3075824779254412,0.33651780129991576,0.15748219870008423,0.3559645360406488,2004.8257356501108,6191.839566634763
2.9536719576719577,919.1209017734445,918.2544862635747,0.3095579287807193,0.33711999189368297,0.15688000810631703,0.35607706642832054,2003.5722274202571,6198.0045909202545
2.961019400352734,920.0582198125716,919.1807647424257,0.31157200341180535,0.33772964227352653,0.15627035772647346,0.3561961111679607,2002.294210749349,6204.165721228489
2.9683668430335097,921.0097591301023,920.1228518986942,0.3136249732350159,0.338346619990175,0.15565338000982498,0.3563219009076572,2000.9915134121009,6210.323118421304
2.975714285714286,921.9747927849777,921.0810703066334,0.31571677271829907,0.33897066327331427,0.15502933672668573,0.356454673708133,1999.6641769914086,6216.476936892787
2.9830617283950622,922.9519868560186,922.0556787069,0.3178468045513856,0.33960131046529934,0.15439868953470065,0.3565946751193122,1998.3125805062366,6222.62731936351
2.990409171075838,923.9390914371302,923.0467793409115,0.3200136557675061,0.3402377974723336,0.15376220252766637,0.3567421580215672,1996.9376205445558,6228.774388956976
2.9977566137566143,924.932525934397,924.0541054237858,0.3222147134907101,0.34087891953509997,0.1531210804649,0.3568973818319107,1995.5409550881377,6234.918237497567
3.0051040564373905,925.926896524897,925.0765662779661,0.3244457141685693,0.34152287048297003,0.15247712951702994,0.3570606101615257,1994.1252895437212,6241.0589090825115
3.0124514991181663,926.9145966720063,926.1113867636844,0.32670036771352645,0.3421671124272042,0.15183288757279578,0.35723210513636033,1992.6946152414368,6247.196378926516
3.019798941798942,927.8858186957751,927.1527912961687,0.32897036938518986,0.34280839177488487,0.1511916082251151,0.35741211568222697,1991.2542018949805,6253.330529982816
3.027146384479718,928.829424800714,928.1906810893221,0.3312462310424254,0.3434430599364678,0.1505569400635322,0.3576008575654612,1989.8100701365363,6259.4611340735955
3.034493827160494,929.7349015074743,929.2105497493893,0.3335191415234781,0.344067772562545,0.14993222743745505,0.3577984872443826,1988.3678110258593,6265.5878481616965
3.04184126984127,930.5948885365409,930.1959426110857,0.3357833319689464,0.3446803677470648,0.14931963225293524,0.3580050794433535,1986.9310851514763,6271.710235105634
3.049188712522046,931.407051953202,931.1329981886435,0.33803770846118625,0.3452804612145732,0.14871953878542682,0.35822062265683946,1985.5005866510146,6277.827808530203
3.056536155202822,932.1742865357265,932.0144332483042,0.3402857861162124,0.34586940237493685,0.14813059762506317,0.35844503924904064,1984.0740850327154,6283.940088629197
3.063883597883598,932.9033461321505,932.8406361409202,0.3425341455568181,0.3464496792844473,0.14755032071555274,0.3586782220425259,1982.6474046093892,6290.046650736737
3.071231040564374,933.6028602983857,933.6179671768058,0.34479047175688593,0.3470241718092366,0.14697582819076335,0.35892007160584777,1981.215668935752,6296.147154959431
3.0785784832451504,934.2816407171441,934.3559703349526,0.34706206622387814,0.3475955868061116,0.14640441319388842,0.3591705227781777,1979.7742448923968,6302.241355753739
3.085925925925926,934.9476436709537,935.0649595389973,0.34935509724096486,0.3481661738423282,0.14583382615767182,0.3594295576860471,1978.3192184392974,6308.329097080794
3.0932733686067024,935.6075300955752,935.7545143636662,0.35167442563435364,0.3487376597214557,0.1452623402785443,0.3596972081798508,1976.847505173904,6314.410300070468
3.100620811287478,936.2666143209962,936.4327935393569,0.35402374117230073,0.3493113016140724,0.14468869838592757,0.35997355205251136,1975.356763780125,6320.484948441088
3.107968253968254,936.9290096865283,937.1063808884387,0.3564058091982386,0.3498879827603172,0.1441120172396828,0.3602587065691502,1973.8452395290378,6326.553074689067
3.1153156966490303,937.5978448972534,937.7804093021703,0.3588227187622347,0.35046830921251804,0.14353169078748193,0.36055282149878026,1972.3116068288439,6332.614748367584
3.1226631393298057,938.2754832003924,938.4587958835378,0.3612760887512421,0.3510526907672817,0.14294730923271834,0.36085607276043985,1970.7548384263903,6338.67006676893
3.130010582010582,938.9637143449461,939.1444963868614,0.36376722331280914,0.3516414025067238,0.1423585974932762,0.3611686571144857,1969.1741067841663,6344.719147832611
3.1373580246913577,939.663910209626,939.8397359004538,0.366297222471574,0.352234629022041,0.141765370977959,0.361490787960229,1967.5687138893948,6350.762124913933
3.144705467372134,940.377145081275,940.5462002689397,0.3688670579340465,0.35283249504647507,0.1411675049535249,0.361822692129251,1965.9380431526504,6356.79914301779
3.15205291005291,941.104285623671,941.2651866592277,0.37147762366599163,0.35343508613705477,0.14056491386294523,0.3621646075026319,1964.2815273143426,6362.830356142243
3.159400352733686,941.8460565791755,941.9977177837075,0.3741297689543047,0.35404246237216197,0.13995753762783805,0.362516781275219,1962.5986274655384,6368.855925439654
3.1667477954144623,942.6030878636825,942.744626295178,0.37682431965132185,0.3546546672837208,0.13934533271627914,0.36287946870965976,1960.888819567537,6374.876017967596
3.174095238095238,943.3759478184622,943.506615883055,0.37956209160765964,0.35527173360295405,0.13872826639704594,0.3632529322506666,1959.1515859281567,6380.890805858135
3.181442680776014,944.165166392291,944.2843047795401,0.3823438990208151,0.3558936869081866,0.13810631309181343,0.3636374408977485,1957.3864099041919,6386.900465779836
3.18879012345679,944.9712511274194,945.078256315892,0.3851705595140753,0.35652054790862364,0.13747945209137638,0.3640332697589903,1955.5927726786258,6392.905178602142
3.196137566137566,945.7946980768681,945.8890001307307,0.3880428971317928,0.35715233385077333,0.1368476661492267,0.36444069972832427,1953.7701513600005,6398.905129198183
3.203485008818342,946.6359991945036,946.7170467375646,0.39096174401471634,0.3577890593658892,0.13621094063411082,0.36486001724422545,1951.9180179193477,6404.900506341409
3.2108324514991184,947.4956472953933,947.5628974372933,0.39392794124034014,0.35843073696427863,0.13556926303572137,0.3652915140994423,1950.035838656951,6410.891502665199
3.2181798941798943,948.3741393564109,948.4270510042523,0.3969423391320009,0.3590773773081512,0.1349226226918488,0.3657354872799805,1948.1230740062113,6416.878314664377
3.2255273368606705,949.2719786903461,949.3100081570575,0.40000579722408086,0.35972898934637076,0.1342710106536292,0.36619223881776103,1946.1791785557252,6422.861142724317
3.2328747795414468,950.1896763585385,950.2122745202049,0.4031191839968342,0.36038558036336127,0.13361441963663873,0.366662075645774,1944.2036012175515,6428.840191167966
3.2402222222222226,951.1277520691746,951.1343625631862,0.40628337644801393,0.36104715597457643,0.13295284402542357,0.36714530944762347,1942.1957854990303,6434.815668314314
3.2475696649029984,952.0867347267758,952.0767928489364,0.409499259539703,0.36171372008842356,0.13228627991157646,0.36764225649546567,1940.1551698537924,6440.787786543909
3.254917107583774,953.0671627425223,953.0400948153688,0.4127677255410728,0.3623852748467044,0.13161472515329561,0.3681532374717779,1938.081188098809,6446.756762368468
3.2622645502645504,954.069584177136,954.0248072392554,0.4160896732770431,0.36306182055079544,0.13093817944920458,0.36867857727134185,1935.973269891147,6452.722816502579
3.2696119929453267,955.0945567625438,955.0314784808722,0.4194660072863278,0.3637433555778215,0.1302566444221785,0.36921860478044977,1933.8308412622268,6458.686173936032
3.2769594356261025,956.1426478314962,956.0606665734564,0.4228976368884783,0.36442987628927875,0.12957012371072124,0.3697736526307366,1931.6533252098225,6464.647064005786
3.2843068783068787,957.214434173009,957.1129391984582,0.42638547515721636,0.36512137693348184,0.12887862306651818,0.37034405692528327,1929.440142349525,6470.605720466755
3.291654320987655,958.3105018240205,958.188873572208,0.4299304377959765,0.36581784954256874,0.12818215045743128,0.3709301569347808,1927.1907116282616,6476.562381560779
3.299001763668431,959.4314458027334,959.289056259435,0.43353344191075427,0.3665192838244224,0.12748071617557766,0.37153229476162436,1924.904451102973,6482.517290083221
3.3063492063492066,960.5778697858677,960.4140829223652,0.43719540467485773,0.3672256670496475,0.12677433295035254,0.3721508149698407,1922.5807787878882,6488.470693446673
3.3136966490299824,961.7503857299196,961.5645580096912,0.44091724187985804,0.3679369839336191,0.12606301606638093,0.372786064178772,1920.2191135740065,6494.422843741266
3.3210440917107587,962.9496134351003,962.7410943868157,0.44469986636685843,0.3686532165135504,0.12534678348644962,0.373438390618439,1917.8188762245268,6500.373997791098
3.328391534391535,964.1761800496898,963.9443129068316,0.4485441863320998,0.3693743440204903,0.1246256559795097,0.3741081436445082,1915.3794904500112,6506.324417206253
3.3357389770723107,965.4307195118946,965.1748419204404,0.4524511035008922,0.37010034274614656,0.12389965725385343,0.37479567321079554,1912.9003840671053,6512.27436842987
3.3430864197530865,966.7138719258687,966.4333167221529,0.4564215111638764,0.3708311859044224,0.12316881409557762,0.37550132929724594,1910.3809902446135,6518.224122779731
3.3504338624338623,968.0262828682493,967.7203789295357,0.46045629206969957,0.37156684348755814,0.12243315651244188,0.37622546129135837,1907.820748840687,6524.173956483733
3.3577813051146386,969.3686026213537,969.0366757918748,0.4645563161683185,0.37230728211677616,0.12169271788322382,0.37696841732106523,1905.2191078347946,6530.124150708665
3.365128747795415,970.7414853290434,970.3828594243563,0.46872243819933723,0.3730524648873372,0.12094753511266286,0.377730543537133,1902.5755248580263,6536.0749915816
3.3724761904761906,972.1455880711743,971.7595859636774,0.4729554951200491,0.3738023512079294,0.12019764879207065,0.3785121833432346,1899.8894688251094,6542.02677020323
3.379823633156967,973.5815698525142,973.1675146408867,0.4772563033681869,0.3745568966343306,0.11944310336566939,0.3793136765719468,1897.1604216713124,6547.979782652401
3.3871710758377422,975.0500905020099,974.6073067671852,0.4816256559547986,0.3753160526972982,0.1186839473027018,0.3801353586050584,1894.3878801971393,6553.934329981102
3.3945185185185185,976.5518094783341,976.0796246284091,0.48606431938318423,0.37607976672466875,0.11792023327533126,0.3809775594367372,1891.571358023396,6559.890718199093
3.4018659611992947,978.0873845777298,977.5851302839392,0.490573030390412,0.37684798165767,0.11715201834233005,0.3818406026782941,1888.7103876588383,6565.849258247345
3.4092134038800705,979.6574705403077,979.1244842658662,0.49515249250865984,0.37762063586147876,0.11637936413852125,0.38272480450351354,1885.8045226821478,6571.810265959426
3.416560846560847,981.2627175511406,980.69834417436,0.49980337244442624,0.378397662930089,0.11560233706991105,0.3836304725337787,1882.8533400394783,6577.774062009919
3.423908289241623,982.9037696327327,982.3073631653756,0.5045262962745913,0.379178991485587,0.11482100851441301,0.3845579046625254,1879.8564424582173,6583.74097184896
3.4312557319223984,984.5812629257523,983.9521883270544,0.5093218454593654,0.37996454497197385,0.11403545502802613,0.38550738781889915,1876.8134609769413,6589.71132562191
3.4386031746031747,986.2958238552642,985.6334589414859,0.5141905526733394,0.3807542414437132,0.11324575855628678,0.3864791966708751,1873.7240575907945,6595.685458073198
3.4459506172839505,988.0480671801356,987.351804628838,0.5191328974571479,0.3815479933492301,0.11245200665076988,0.3874735922685244,1870.5879280106915,6601.663708433302
3.4532980599647267,989.8385939237868,989.1078433713129,0.524149301693723,0.3823457073096396,0.11165429269036038,0.3884908206285882,1867.4048045338316,6607.6464202878615
3.460645502645503,991.6679891850221,990.9021794148659,0.5292401249146529,0.3831472838930333,0.11085271610696669,0.38953111126202433,1864.1744590220135,6613.633941427858
3.4679929453262788,993.5368198283356,992.7354010472243,0.5344056594438917,0.38395261738471553,0.11004738261528445,0.3905946756467585,1860.8967059831602,6619.626623679828
3.475340388007055,995.4456320538065,994.6080782513908,0.5396461253878768,0.3847615955538408,0.1092384044461592,0.39168170564846416,1857.571405750304,6625.624822715055
3.4826878306878313,997.394948847508,996.5207602345647,0.54496166548306,0.38557409941697124,0.10842590058302874,0.3927923718928343,1854.1984677510493,6631.628897836674
3.490035273368607,999.385267314244,998.4739728332441,0.550352339813928,0.38639000299914583,0.10760999700085416,0.39392682209348423,1850.7778538592136,6637.639211743664
3.4973827160493833,1001.4170558953955,1000.4682157961871,0.5558181204167355,0.3872091730931256,0.10679082690687439,0.3950851793403294,1847.309581818992,6643.6561302707305
3.504730158730159,1003.4907514756998,1002.5039599479088,0.561358885786419,0.3880314690175586,0.1059685309824414,0.39626754035401374,1843.7937287305547,6649.680022103033
3.512077601410935,1005.606756383914,1004.5816442364826,0.5669744153064784,0.38885674237489115,0.10514325762510889,0.3974739737127216,1840.2304345845264,6655.711258464866
3.519425044091711,1007.7654352934956,1006.7016726705722,0.5726643836239521,0.3896848368099347,0.10431516319006527,0.39870451805846835,1836.619905831304,6661.750212781362
3.526772486772487,1009.9671120306868,1008.8644111518689,0.5784283549939986,0.39051558777008766,0.10348441222991232,0.39995918029074107,1832.9624189696651,6667.797260312373
3.534119929453263,1012.2120662986986,1011.0701842104195,0.584265777620958,0.39134882226829804,0.10265117773170196,0.4012379337561224,1829.2583241376042,6673.852777757763
3.5414673721340386,1014.5005303280282,1013.319271651696,0.5901759780250866,0.39218435864994633,0.10181564135005367,0.4025407164432848,1825.5080486868815,6679.9171428334375
3.548814814814815,1016.8326854643338,1015.6119051256888,0.5961581554664174,0.39302200636491763,0.10097799363508239,0.403867429193463,1821.7121007213238,6685.990733817486
3.556162257495591,1019.2086587066779,1017.9482646297546,0.6022113764593289,0.3938615657462233,0.10013843425377673,0.40521793393719546,1817.8710725775645,6692.073929065986
3.563509700176367,1021.6285192103479,1020.3284749584402,0.6083345694134022,0.3947028277966239,0.09929717220337606,0.4065920519687555,1813.9856442256498,6698.167106498076
3.570857142857143,1024.092274769848,1022.7526021149833,0.614526519437934,0.3955455739847923,0.09845442601520771,0.4079895622702537,1810.056586565798,6704.270643050088
3.5818783068783073,1027.8700678681096,1026.471126838412,0.6239403403032612,0.39681197400494556,0.09718802599505447,0.4101290962777579,1804.083113777282,6713.446191794679
3.5928994708994715,1031.7459955428496,1030.288186898017,0.633500510434033,0.398080385093622,0.09591961490637801,0.4123195685930052,1798.0167761077303,6722.647149727557
3.603920634920635,1035.719200586873,1034.203150695508,0.6432009709977837,0.39934994355517767,0.09465005644482236,0.4145596508172754,1791.8614181460064,6731.874758014989
3.6149417989417993,1039.7884279467455,1038.2149984548967,0.6530348261452991,0.40061973331528594,0.09338026668471404,0.4168477640966588,1785.6214156039728,6741.130236664202
3.6259629629629635,1043.9520003912533,1042.322296395913,0.6629943183830839,0.4018887851313843,0.09211121486861569,0.4191820710013325,1779.301690943717,6750.414778948289
3.636984126984127,1048.207795706806,1046.5231722138647,0.6730708093072802,0.40315607606941034,0.09084392393058967,0.42156046907832784,1772.9077256027033,6759.729545521712
3.648005291005291,1052.5532258248788,1050.8152922874915,0.6832547663609934,0.4044205292815765,0.08957947071842347,0.4239805862825373,1766.44556839682,6769.075658250478
3.659026455026455,1056.9852182883626,1055.195841045057,0.6935357562232128,0.4056810141199211,0.08831898588007889,0.4264397784712655,1759.9218397153904,6778.454193786667
3.6700476190476192,1061.5002004565517,1059.661502918609,0.7039024453650434,0.40693634661975253,0.08706365338024745,0.4289351291220298,1753.3437311682214,6787.866176922786
3.6810687830687834,1066.0940868319908,1064.208447306211,0.7143426082186084,0.40818529038581963,0.08581470961418039,0.43146345140191134,1746.7190004020836,6797.3125737669025
3.692089947089947,1070.7622698663722,1068.8323169415514,0.7248431432973612,0.40942655791204474,0.08457344208795525,0.4340212926801741,1740.0559608716828,6806.794284784906
3.7031111111111112,1075.4996145673276,1073.528220039551,0.735390097486013,0.41065881236293666,0.0833411876370633,0.4366049415349826,1733.363466426661,6816.312137761162
3.7141322751322754,1080.3004571838355,1078.2907265456947,0.7459686985868067,0.41188066984133365,0.08211933015866638,0.4392104372609486,1726.6508906595886,6825.866880733287
3.725153439153439,1085.1586081959406,1083.1138687664802,0.7565633960700365,0.4130907021629415,0.08090929783705847,0.4418335818381892,1719.928101048016,6835.459174960602
3.7361746031746033,1090.0673597756906,1087.9911465995935,0.7671579098343466,0.4142874401532517,0.07971255984674833,0.44446995427695624,1713.2054280139714,6845.089587988882
3.7471957671957674,1095.0191246051536,1092.9152021010807,0.7777343897739697,0.4154692774527437,0.07853072254725631,0.44711470274264253,1706.4941982145688,6854.759414089946
3.7582169312169316,1100.0007074647087,1097.8733979834021,0.7882625116448729,0.41663326964255676,0.07736673035744322,0.4497598002986846,1699.8136536822576,6864.480868438208
3.7692380952380953,1105.0016698982572,1102.8553362104844,0.7987197882134234,0.41777741742831237,0.07622258257168764,0.4523991103257535,1693.1780635305165,6874.258631513691
3.780259259259259,1110.013300403101,1107.8522584420293,0.8090882659865863,0.4189002573172219,0.07509974268277807,0.455027600716847,1686.5988200201116,6884.092844991243
3.791280423280424,1115.0266307884033,1112.8552123641357,0.81934979713697,0.42000032466710024,0.07399967533289976,0.4576401702039078,1680.0874387252866,6893.983525034972
3.8023015873015877,1120.0324411544962,1117.8550081517365,0.8294861289235878,0.4210761600282789,0.07292383997172106,0.46023167436847096,1673.6555017924582,6903.930558371236
3.8133227513227514,1125.0212866583718,1122.842224452667,0.8394789923812911,0.4221263157136451,0.07187368428635492,0.4627969511595911,1667.3146016629687,6913.933698617259
3.8243439153439156,1129.9835347661385,1127.807237114407,0.8493101901766387,0.42314936257620755,0.07085063742379244,0.465330845902656,1661.0762853247725,6923.992563090075
3.8353650793650798,1134.9094077907773,1132.7402586940761,0.8589616830144896,0.4241438969554878,0.06985610304451215,0.46782823561502745,1654.9519994837485,6934.106630210972
3.8427125220458556,1138.1682396502897,1136.0062785609118,0.8652873743272419,0.4247904009596855,0.0692095990403145,0.46947037589233664,1650.938077244751,6940.879688483722
3.8500599647266314,1141.4035740789514,1139.2507243245211,0.8715200836481776,0.4254232258036834,0.06857677419631657,0.47109255431049557,1646.9831560645034,6947.676758467078
3.8574074074074076,1144.6124649455037,1142.4706336313902,0.8776546885137562,0.426041983522368,0.06795801647763197,0.4726933055198876,1643.0904863656567,6954.4975806785405
3.864754850088184,1147.7919679528507,1145.6630428278609,0.8836861504894711,0.42664629587482683,0.06735370412517319,0.4742711848485211,1639.2632652508382,6961.341867451293
3.8721022927689597,1150.9391467682085,1148.8249933431248,0.8896095245844007,0.4272357952809538,0.06676420471904623,0.47582477077162244,1635.5046305287156,6968.20930297583
3.879449735449736,1154.0510790657968,1151.9535380087787,0.8954199681791862,0.4278101257504836,0.06618987424951643,0.47735266721275704,1631.8176550488129,6975.099543404851
3.886797178130512,1157.1248624465618,1155.0457472756545,0.9011127494258669,0.4283689438017478,0.06563105619825224,0.47885350566414575,1628.2053413714548,6982.012217020752
3.894144620811288,1160.157620199848,1158.0987152904445,0.9066832550800302,0.42891191936768364,0.06508808063231637,0.4803259471143392,1624.6706167979316,6988.946924464688
3.901492063492064,1163.1465068719815,1161.1095657956096,0.9121269977275092,0.4294387366869246,0.0645612633130754,0.481768683771757,1621.21632878485,6995.903239025785
3.9088395061728396,1166.088713606431,1164.0754578165493,0.9174396223692994,0.42994909517816843,0.0640509048218316,0.4831804405727524,1617.8452407657207,7002.8807069887225
3.916186948853616,1168.9814732196473,1166.9935911001196,0.9226169123293415,0.4304427102964669,0.0635572897035331,0.484559976462766,1614.5600284022187,7009.878848037485
3.923534391534392,1171.822064975764,1169.8612112684004,0.9276547944501817,0.4309193143706184,0.06308068562938156,0.48590608543873165,1611.3632762873117,7016.8971557127215
3.930881834215168,1174.6078190220162,1172.675614651081,0.9325493435411368,0.4313786574214915,0.06262134257850853,0.48721759734010495,1608.2574751227112,7023.9350979197225
3.9382292768959437,1177.3361204448809,1175.4341527589277,0.9372967860422269,0.4318205079618837,0.06217949203811632,0.4884933783746203,1605.245019393948,7030.992117483608
3.9455767195767195,1180.0044129044174,1178.134236359389,0.9418935028645767,0.43224465377945853,0.061755346220541456,0.48973233136301614,1602.3282055680177,7038.067632747883
3.9529241622574958,1182.6102018008548,1180.7733391133643,0.9463360313638925,0.4326509027054377,0.06134909729456228,0.4909333956843485,1599.509230841123,7045.16103821205
3.960271604938272,1185.151056922873,1183.3490007292964,0.9506210663975655,0.43303908337311775,0.060960916626882244,0.4920955468999366,1596.790192467899,7052.271705203457
3.967619047619048,1187.6246145208743,1185.8588295868062,0.9547454604074155,0.43340904597199914,0.06059095402800087,0.4932177960291702,1594.1730877089058,7059.398982578027
3.974966490299824,1190.0285787403354,1188.300504776726,0.9587062224582872,0.4337606630054658,0.06023933699453422,0.49429918844399306,1591.6598144406828,7066.542197443896
3.9823139329806003,1192.3607223393763,1190.6717774971457,0.9625005161466691,0.4340938300626815,0.05990616993731851,0.49533880234034156,1589.2521724828177,7073.7006559012725
3.989661375661376,1194.618886600038,1192.970471735374,0.9661256562718241,0.43440846661888205,0.059591533381117945,0.49633574673346287,1586.9518657102587,7080.873643791056
3.9970088183421524,1196.800980323111,1195.1944841526795,0.9695791041326509,0.43470451688283657,0.05929548311716341,0.49728915890885145,1584.7605050376558,7088.060427443773
4.004356261022928,1198.9049777698203,1197.3417830711942,0.9728584612739303,0.4349819507163673,0.05901804928363271,0.49819820124011205,1582.6796123876366,7095.260254419201
4.011703703703704,1200.9289153776226,1199.4104064388598,0.975961461451844,0.4352407646591077,0.058759235340892266,0.4990620572573142,1580.7106257890284,7102.472354225638
4.01905114638448,1202.8708870279113,1201.3984586165327,0.978885960515025,0.4354809831031384,0.05851901689686164,0.49987992681130655,1578.854905797766,7109.6959390058855
4.0263985890652565,1204.729037574923,1203.304105788263,0.9816299237956799,0.435702659678313,0.05829734032168701,0.5006510201264798,1577.113743497764,7116.930204174704
4.033746031746032,1206.5015542490653,1205.1255697368329,0.9841914104632158,0.4359058789324451,0.05809412106755491,0.5013745504597,1575.4883704292124,7124.17432898928
4.041093474426808,1208.1866554114476,1206.8611196456,0.9865685540919666,0.4360907584250967,0.057909241574903285,0.5020497249758954,1573.979970919186,7131.427477030182
4.048440917107584,1209.7825759397692,1208.5090614755272,0.9887595384072854,0.4362574514063311,0.05774254859366891,0.5026757332942038,1572.5896974717887,7138.688796564423
4.05578835978836,1211.2875482382553,1210.067724310649,0.9907625667587231,0.4364061503344168,0.057593849665583174,0.5032517329256214,1571.3186901387292,7145.957420754477
4.063135802469136,1212.6997774381978,1211.5354428500552,0.9925758232636205,0.4365370916209524,0.057462908379047606,0.5037768304695726,1570.1681011753788,7153.232467665793
4.070483245149912,1214.0174087175676,1212.9105349330102,0.9941974226847247,0.4366505622200962,0.05734943777990381,0.5042500568903298,1569.1391268455698,7160.513040009338
4.077830687830688,1215.2384837135805,1214.191272613513,0.9956253448626782,0.4367469090855703,0.057253090914429726,0.5046703343375885,1568.2330490269937,7167.798224532369
4.081504409171076,1215.812158218171,1214.7956970281216,0.9962659880525733,0.4367887892788293,0.05721121072117071,0.5048602397785863,1567.8265334668686,7171.442256348975
4.085178130511465,1216.360881630646,1215.3758448127105,0.9968573480892436,0.4368265532866308,0.05717344671336923,0.5050364306888044,1567.4512901795997,7175.087090932848
4.088851851851853,1216.8843503033443,1215.9314688351997,0.9973990912621582,0.43686026893307917,0.05713973106692081,0.5051987185071848,1567.1075309188207,7178.732609051078
4.0925255731922405,1217.3822388703898,1216.4623102496978,0.9978908538391612,0.43689001216078666,0.05710998783921334,0.5053468956922942,1566.7954864881733,7182.378690144165
4.096199294532628,1217.854196083508,1216.9680965062753,0.9983322367966122,0.43691586870453136,0.0570841312954686,0.5054807321420233,1566.515410085258,7186.025212219932
4.099873015873016,1218.2998402227527,1217.4485394611515,0.9987228006699846,0.43693793638704037,0.05706206361295961,0.5055999710347426,1566.2675805691517,7189.672051727025
4.103546737213405,1218.7187544950789,1217.903334025768,0.9990620618607224,0.43695632836847004,0.057043671631529985,0.5057043242436376,1566.0523048038633,7193.3190834068655
4.107220458553793,1219.1104836641136,1218.3321583699246,0.9993494938378027,0.43697117792758405,0.05702882207241593,0.5057934679902578,1565.8699168958924,7196.966180126493
4.109669606114052,1219.3562917095298,1218.6034484180948,0.999512047367355,0.4369791875670748,0.057020812432925214,0.5058442704532639,1565.7667697148117,7199.397550368735
4.11211875367431,1219.5896466425754,1218.862947718736,0.999651156733694,0.43698575017342045,0.05701424982657957,0.5058880378171989,1565.6784988600398,7201.82885333637
4.114567901234569,1219.8103968686123,1219.1105603652582,0.9997666793045239,0.43699093259493743,0.05700906740506256,0.5059246516291753,1565.6051948378808,7204.260049776328
4.117017048794827,1220.0184052109532,1219.346202432519,0.9998585270030288,0.4369948155877121,0.05700518441228796,0.5059539992667872,1565.5469135368494,7206.69110001764
4.119466196355086,1220.213580735282,1219.5698186692466,0.9999267455149595,0.4369974999791346,0.057002500020865404,0.5059759964318149,1565.5036259673789,7209.121964060582
4.121915343915345,1220.3959594454602,1219.7814194265056,0.9999717107895523,0.43699911763881205,0.05700088236118795,0.5059906472736301,1565.4750935735665,7211.552601829113
4.1231399176954735,1220.4824452909052,1219.8827551856987,0.9999858002469784,0.43699958106522424,0.05700041893477576,0.5059952814333272,1565.4661532089958,7212.76782346897
4.123752204585538,1220.5245543294272,1219.9323241911775,0.9999908659387811,0.4369997388956023,0.05700026110439774,0.5059969563775825,1565.4629388104458,7213.375407864736
4.124364491475603,1220.565937224039,1219.9811721632793,0.9999946912602342,0.4369998534400512,0.05700014655994879,0.5059982258399773,1565.4605114800415,7213.982973872065
4.1251808739956894,1220.6200453686492,1220.0452033124282,0.9999980179080782,0.43699994812382253,0.057000051876177474,0.5059993347422156,1565.4584005794138,7214.793032327006
4.125589065255733,1220.6466745516614,1220.0767592309658,0.9999990052748565,0.43699997477329444,0.057000025226705595,0.5059996653234746,1565.4577740528773,7215.198048543469
4.125997256515776,1220.673048333789,1220.1080178392472,0.9999996118045889,0.43699999053656585,0.05700000946343419,0.5059998690035391,1565.457389183768,7215.6030558983175
4.126405447775818,1220.699195826666,1220.1389881412981,0.9999999099518364,0.4369999979725057,0.05700000202749429,0.5059999694377052,1565.457199996562,7216.008054266772
4.126813639035862,1220.7251560578618,1220.1696815553898,0.9999999965087795,0.43700000003869116,0.05699999996130888,0.5059999986879473,1565.4571450724718,7216.413043541752
4.126966710758378,1220.7348531817536,1220.1811230711705,0.9999999999524928,0.4370000001172791,0.05699999988272089,0.5059999998552998,1565.4571428872882,7216.564912157558
4.127119782480895,1220.7445346419893,1220.1925285733043,1.0000000000282834,0.437000000118539,0.05699999988146097,0.5059999998814609,1565.4571428391957,7216.716779479272
4.127272854203411,1220.7542018830463,1220.2038986897583,1.0000000000282834,0.4370000001180837,0.05699999988191629,0.5059999998819164,1565.4571428391957,7216.868645504091
4.127425925925927,1220.7638551090079,1220.2152338597732,1.0000000000282834,0.4370000001176283,0.05699999988237171,0.5059999998823718,1565.4571428391957,7217.020510229336
4.128038212815991,1220.802331283928,1220.2602335857007,1.0000000000282834,0.43700000011580564,0.05699999988419433,0.5059999998841943,1565.4571428391957,7217.627956082211
4.128650499706056,1220.840596656869,1220.3047075913971,1.0000000000282834,0.43700000011398155,0.05699999988601844,0.5059999998860184,1565.4571428391957,7218.235380936406
4.1292627865961204,1220.8786614303224,1220.348681249251,1.0000000000282834,0.43700000011215595,0.05699999988784404,0.505999999887844,1565.4571428391957,7218.842784636288
4.131099647266314,1220.9917469393852,1220.4778358542158,1.0000000000282834,0.43700000010667034,0.05699999989332968,0.5059999998933297,1565.4571428391957,7220.664867369497
4.132936507936508,1221.10334976271,1220.6032898568117,1.0000000000282834,0.4370000001011715,0.05699999989882851,0.5059999998988285,1565.4571428391957,7222.4867548238135
4.134773368606702,1221.2136752335016,1220.725553879379,1.0000000000282834,0.4370000000956596,0.05699999990434042,0.5059999999043404,1565.4571428391957,7224.308443918158
4.136610229276896,1221.3229004162033,1220.8450682393898,1.0000000000282834,0.4370000000901347,0.056999999909865325,0.5059999999098653,1565.4571428391957,7226.129932023121
4.138447089947091,1221.4311779997665,1220.9622126335714,1.0000000000282834,0.43700000008459683,0.05699999991540315,0.5059999999154031,1565.4571428391957,7227.9512168986785
4.140283950617285,1221.538639654435,1221.0773144871944,1.0000000000282834,0.43700000007904616,0.05699999992095384,0.5059999999209538,1565.4571428391957,7229.7722966404945
4.142120811287478,1221.6453989260299,1221.1906561527214,1.0000000000282834,0.43700000007348266,0.05699999992651733,0.5059999999265173,1565.4571428391957,7231.593169633625
4.143957671957672,1221.751553731518,1221.3024811165458,1.0000000000282834,0.4370000000679064,0.0569999999320936,0.5059999999320935,1565.4571428391957,7233.413834512602
4.145794532627866,1221.8571885108172,1221.4129993506156,1.0000000000282834,0.4370000000623174,0.0569999999376826,0.5059999999376826,1565.4571428391957,7235.234290127028
4.1476313932980595,1221.9623760822317,1221.5223919268433,1.0000000000282834,0.4370000000567157,0.05699999994328433,0.5059999999432844,1565.4571428391957,7237.054535511902
4.149468253968253,1222.0671792423534,1221.6308149959302,1.0000000000282834,0.43700000005110123,0.05699999994889876,0.5059999999488988,1565.4571428391957,7238.874569862044
4.151305114638448,1222.1716521456403,1221.7384032181983,1.0000000000282834,0.4370000000454741,0.056999999954525885,0.5059999999545259,1565.4571428391957,7240.694392510046
4.1531419753086425,1222.275841494029,1221.8452727219508,1.0000000000282834,0.4370000000398343,0.05699999996016569,0.5059999999601656,1565.4571428391957,7242.51400290725
4.154978835978836,1222.3797875627477,1221.9515236544553,1.0000000000282834,0.4370000000341818,0.05699999996581819,0.5059999999658182,1565.4571428391957,7244.333400607364
4.15681569664903,1222.483525084892,1222.057242381674,1.0000000000282834,0.43700000002851663,0.05699999997148338,0.5059999999714834,1565.4571428391957,7246.152585252325
4.158652557319225,1222.5870840142195,1222.1625033851274,1.0000000000282834,0.43700000002283873,0.05699999997716127,0.5059999999771613,1565.4571428391957,7247.971556560115
4.160489417989419,1222.6904901829298,1222.2673708976015,1.0000000000282834,0.4370000000171481,0.056999999982851865,0.5059999999828518,1565.4571428391957,7249.79031431425
4.162326278659613,1222.793765868895,1222.3719003136748,1.0000000000282834,0.43700000001144484,0.05699999998855518,0.5059999999885552,1565.4571428391957,7251.608858354731
4.164163139329807,1222.896930284808,1222.476139406066,1.0000000000282834,0.4370000000057288,0.05699999999427122,0.5059999999942713,1565.4571428391957,7253.427188570222
4.166,1223.0,1222.5801293745492,1.0000000000282834,0.437,0.057,0.506,1565.4571428391957,7255.2453048913285
