z,T,t,fs,x,y,w,rhob,p
0.0,556.2445887343474,298.0,0.0,0.2264790011376604,0.26752099886233965,0.35471955007524547,2200.0,2040.0
0.0021834381551362686,576.2778780832055,344.12594664142614,4.7498376451881655e-07,0.22647917298747453,0.26752082701252544,0.35471955007524547,2199.9996986024453,2044.5303480658076
0.004366876310272537,594.1949226318953,385.05083515859815,1.935071409957866e-06,0.2264797012493,0.2675202987507,0.35471955007524547,2199.998772114259,2049.300448748754
0.008733752620545075,624.7057803890847,454.06609713908875,1.1000161532710435e-05,0.22648298101203976,0.2675170189879602,0.35471955007524547,2199.993019926072,2059.4654962482373
0.013100628930817612,649.455321859325,509.4551984649062,3.321158172750624e-05,0.22649101713604577,0.26750898286395425,0.35471955007524547,2199.9789258280407,2070.32715399358
0.01746750524109015,669.6700258214921,554.3166181782835,7.253642616049675e-05,0.22650524492173477,0.26749475507826526,0.35471955007524547,2199.9539725288973,2081.747054763339
0.026201257861635224,699.9610006401862,620.9131837912739,0.00020740225346544848,0.226554039573445,0.267445960426555,0.35471955007524547,2199.8683943815086,2105.826582633736
0.03275157232704403,716.2150916968484,656.3303066738758,0.00035537652129037883,0.22660757687792665,0.2673924231220734,0.35471955007524547,2199.774498366819,2124.642176366336
0.039301886792452834,728.5315818907378,683.0038977250794,0.0005381813121698712,0.2266737159161113,0.2673262840838887,0.35471955007524547,2199.658500892515,2143.872098514448
0.045852201257861644,737.9119556325172,703.207235286347,0.0007504310764205884,0.22675050818832101,0.267249491811679,0.35471955007524547,2199.523819320679,2163.3636356713505
0.05240251572327045,745.086751513049,718.5774310497598,0.0009871825340464374,0.2268361652086915,0.2671638347913085,0.35471955007524547,2199.373590374325,2183.0030425842374
0.05895283018867925,750.5957434606203,730.3125142893259,0.0012442132954029498,0.226929159310532,0.2670708406894679,0.3547195500752455,2199.21049334064,2202.7057816300817
0.06550314465408806,754.8415825453615,739.29970529889,0.0015180459242821512,0.22702823235238453,0.2669717676476155,0.3547195500752455,2199.0367348019317,2222.4092390079477
0.07205345911949687,758.1267841099134,746.2019259676938,0.0018058743399977702,0.2271323690901913,0.2668676309098087,0.3547195500752455,2198.8540953366573,2242.0672737654827
0.07860377358490567,760.6798496254145,751.517821108203,0.0021054616497862017,0.2272407602129097,0.2667592397870903,0.3547195500752455,2198.6639943491396,2261.6461285259775
0.08515408805031448,762.674067683851,755.6243497328414,0.0024150383053165377,0.2273527654953899,0.2666472345046101,0.3547195500752455,2198.4675546936346,2281.121355700301
0.09170440251572329,764.2412488352123,758.80755122602,0.0027332114514249006,0.22746788100061568,0.2665321189993843,0.3547195500752455,2198.265660196437,2300.4755034708487
0.09825471698113208,765.4818769155213,761.2850833669997,0.0030588884217814024,0.22758571140032588,0.2664142885996741,0.3547195500752455,2198.0590042011613,2319.6963717703043
0.1048050314465409,766.4726800720896,763.2229148796794,0.003391214016773573,0.22770594728206167,0.2662940527179384,0.3547195500752456,2197.8481293686136,2338.77569682063
0.1113553459119497,767.2723170371519,764.7477945402583,0.0037295199574409778,0.22782834686152695,0.266171653138473,0.3547195500752456,2197.6334597504338,2357.708158454481
0.1179056603773585,767.9256709042995,765.9566270886147,0.004073284591928083,0.2279527214043247,0.26604727859567534,0.3547195500752456,2197.4153263570815,2376.4906308801174
0.13100628930817612,768.9228848643837,767.705240496653,0.004775652623714522,0.22820683917580373,0.2657931608241963,0.35471955007524564,2196.9696437394264,2413.600830658473
0.14410691823899374,769.6536805827161,768.8771238022766,0.005496023020415758,0.2284674702289905,0.26553252977100955,0.35471955007524564,2196.5125378497028,2450.1068854902687
0.15720754716981133,770.229127740994,769.7116743281044,0.006233001401644756,0.22873411007504074,0.26526588992495925,0.3547195500752457,2196.044893482025,2486.0201051345066
0.17030817610062893,770.7144371591149,770.3494030093117,0.006985738707668833,0.2290064515229131,0.26499354847708684,0.3547195500752457,2195.567249401183,2521.3571889568266
0.18340880503144655,771.1478828517336,770.872765940641,0.007753716530879984,0.22928430701198402,0.26471569298801606,0.35471955007524575,2195.0799345590194,2556.137246206916
0.19650943396226417,771.551915995249,771.3301263879322,0.008536617224659378,0.22956756161724642,0.2644324383827536,0.3547195500752458,2194.5831505159294,2590.380145994347
0.2096100628930818,771.9396970849239,771.7498316243431,0.009334245513125396,0.22985614468760357,0.2641438553123965,0.3547195500752458,2194.077021182828,2624.1056246574035
0.235811320754717,772.6941173383018,772.5357460811954,0.010973251437014914,0.23044913940543038,0.26355086059456956,0.3547195500752459,2193.0370016810098,2690.0800652802304
0.26201257861635224,773.4419159898279,773.2967564726325,0.012670236896817694,0.23106311120335035,0.2629368887966496,0.35471955007524597,2191.960191678816,2754.2034144477616
0.28821383647798743,774.1935808607267,774.0553986297764,0.014425047953874883,0.23169800438613372,0.26230199561386625,0.3547195500752461,2190.846688856926,2816.6041257009115
0.31441509433962267,774.9527303274986,774.8193975919987,0.01623769030432624,0.23235382101465207,0.2616461789853479,0.3547195500752462,2189.696489600892,2877.397043729089
0.3406163522012579,775.7206435551861,775.591428618771,0.01810826161981353,0.2330305964266469,0.26096940357335313,0.3547195500752463,2188.509531933873,2936.684973486913
0.3668176100628931,776.4978091450873,776.3724547591397,0.02003692470540166,0.23372838952522654,0.2602716104747735,0.3547195500752464,2187.285712549078,2994.5602632022897
0.39301886792452834,777.2844522920176,777.162863396094,0.022023895546121722,0.23444727845408822,0.2595527215459118,0.3547195500752465,2186.024894394748,3051.1062060955396
0.4192201257861636,778.0807134038603,777.962851628854,0.024069436953171975,0.23518735829870416,0.25881264170129586,0.35471955007524664,2184.726910705914,3106.3982344919787
0.44542138364779876,778.8867082990478,778.7725563544517,0.026173854468110734,0.23594873960445284,0.2580512603955471,0.3547195500752468,2183.391567603364,3160.504926911247
0.471622641509434,779.7025483473581,779.5920979461328,0.02833749330254067,0.2367315472693923,0.2572684527306077,0.3547195500752469,2182.018646035539,3213.488857590369
0.49782389937106925,780.5283471296975,780.4215948203026,0.030560735846503654,0.23753591964279358,0.2564640803572064,0.3547195500752471,2180.6079033595715,3265.4073158734077
0.5240251572327045,781.3642225905777,781.2611682445578,0.03284399955073632,0.23836200775893807,0.2556379922410619,0.35471955007524725,2179.159074685077,3316.312918488096
0.5502264150943397,782.2102976996009,782.1109438958077,0.03518773508837593,0.23920997467201977,0.2547900253279802,0.3547195500752474,2177.671874040636,3366.2541334149514
0.5764276729559749,783.0667006307417,782.9710523478016,0.037592424741065465,0.24007999487223575,0.25392000512776425,0.35471955007524764,2176.1459953978765,3415.2757304268775
0.6026289308176102,783.933564794963,783.8416292141441,0.040058580971639626,0.24097225376938214,0.25302774623061786,0.35471955007524786,2174.5811135771673,3463.419170466328
0.6288301886792453,784.8110288375165,784.7228151874289,0.04258674515445218,0.2418869472334844,0.2521130527665156,0.354719550075248,2172.976885053279,3510.722943722362
0.6550314465408805,785.6992366379637,785.6147560540867,0.04517748643985837,0.24282428118396568,0.25117571881603434,0.35471955007524825,2171.33294867592,3557.222864447077
0.6812327044025158,786.5983373289599,786.5176027120715,0.04783140073320855,0.243784471220245,0.25021552877975495,0.3547195500752485,2169.648926317605,3602.952329103824
0.707433962264151,787.5084853468275,787.431511202775,0.050549109771665025,0.24476774228772852,0.24923225771227148,0.35471955007524875,2167.92442345946,3647.9425432847006
0.7336352201257862,788.4298405341382,788.3566427663152,0.05333126028454929,0.24577432837402172,0.24822567162597828,0.354719550075249,2166.159029724013,3692.222721907887
0.7598364779874215,789.3625683328812,789.2931639341406,0.05617852322495911,0.24680447223092739,0.2471955277690726,0.35471955007524936,2164.3523193627684,3735.8202664576334
0.7860377358490567,790.3068401447639,790.2412466851696,0.059091593062228005,0.2478584251184566,0.2461415748815434,0.35471955007524963,2162.5038517051703,3778.7609224245275
0.8122389937106919,791.2628340121477,791.2010687166536,0.06207118712663793,0.24893644656774455,0.24506355343225547,0.35471955007524997,2160.613171574414,3821.068919613912
0.8384402515723272,792.2307359303825,792.1728139307924,0.06511804499996193,0.2500388041605482,0.24396119583945178,0.3547195500752503,2158.679809674167,3862.7670975978494
0.8646415094339623,793.2107424273237,793.156673338136,0.06823292794850958,0.2511657733241213,0.24283422667587862,0.3547195500752507,2156.70328294833,3903.8770182817943
0.8908427672955975,794.2030657255058,794.1528467818981,0.07141661840056716,0.25231763714215155,0.24168236285784847,0.3547195500752511,2154.683094912623,3944.4190673455228
0.9170440251572328,795.2079442400749,795.161546304953,0.0746699194799271,0.2534946861859903,0.24050531381400966,0.35471955007525147,2152.61873595058,3984.412546225875
0.943245283018868,796.2256642379365,796.1830028529367,0.07799365462678877,0.2546972183774949,0.23930278162250507,0.3547195500752519,2150.5096835541044,4023.8757564085795
0.9694465408805032,797.2566051035736,797.2174798602351,0.08138866737791757,0.25592553890948905,0.23807446109051092,0.3547195500752524,2148.355402462966,4062.8260782537827
0.9956477987421385,798.3013349723559,798.2653013125108,0.08485582146449921,0.2571799602811672,0.23682003971883284,0.3547195500752529,2146.1553446027124,4101.280047760424
1.0218490566037737,799.3608142516293,799.3269110907216,0.08839600157627385,0.2584608025745589,0.2355391974254411,0.3547195500752534,2143.9089485997865,4139.253437363587
1.048050314465409,800.4368287652935,800.4030027820511,0.09201011557646442,0.2597683942558937,0.23423160574410634,0.35471955007525396,2141.615638376066,4176.761352676837
1.074251572327044,801.5328974873869,801.4948185412914,0.09569910001727014,0.261103074171114,0.23289692582888605,0.3547195500752546,2139.274819649041,4213.818369058385
1.1004528301886793,802.6560825256553,802.6048853383514,0.09946393362552082,0.2624651964250048,0.23153480357499523,0.3547195500752552,2136.8858713745944,4250.438754036324
1.1266540880503146,803.8201561948512,803.7389194378044,0.10330567124901355,0.2638551426630273,0.23014485733697265,0.35471955007525585,2134.4481242065904,4286.6368518136405
1.1528553459119497,805.0494594841116,804.9104175484653,0.10722553007647717,0.2652733532658272,0.2287266467341728,0.3547195500752566,2131.9608057866153,4322.427703424908
1.179056603773585,806.3787842662784,806.14817268951,0.11122508434444321,0.26672039779446216,0.22727960220553783,0.3547195500752573,2129.422917194122,4357.827798776863
1.2052578616352203,807.8412522730983,807.496987775875,0.11530656564123418,0.2681970836408204,0.22580291635917957,0.3547195500752581,2126.833042390681,4392.85538438652
1.2314591194968554,809.4481497664632,808.995413011724,0.11947301251847225,0.26970451015728103,0.22429548984271896,0.35471955007525896,2124.189253285064,4427.529549426441
1.2576603773584907,811.1830294222611,810.6478037405859,0.1237279399161494,0.27124394905422555,0.22275605094577447,0.3547195500752599,2121.4893194972074,4461.868364536417
1.283861635220126,813.0164455452997,812.427539343534,0.12807472158250285,0.27281662095865394,0.22118337904134613,0.35471955007526096,2118.7311002392626,4495.887500990676
1.310062893081761,814.9221093639176,814.3007318154707,0.13251615340815606,0.27442353742784437,0.21957646257215563,0.35471955007526207,2115.912821398808,4529.600078586417
1.3362641509433963,816.8827180682842,816.2414702295316,0.1370542226143855,0.2760654174413337,0.21793458255866624,0.3547195500752633,2113.0332219987745,4563.017256876071
1.3624654088050316,818.8886236952205,818.2341352544497,0.14168965341071335,0.2777425230191764,0.21625747698082357,0.35471955007526457,2110.091842497184,4596.14890174421
1.3886666666666667,820.9345257652425,820.2701761143752,0.14642041427968788,0.2794541191554152,0.2145458808445848,0.35471955007526607,2107.089971978926,4629.004041359678
1.414867924528302,823.0160393715813,822.3439717632514,0.1512373344370285,0.2811968878470107,0.2128031121529893,0.3547195500752676,2104.033429699658,4661.591077804663
1.4410691823899373,825.1252727773705,824.4481647336595,0.1561122423426335,0.28296063658993975,0.2110393634100602,0.35471955007526934,2100.940091708927,4693.917748284792
1.4672704402515724,827.2427547791908,826.5662703729124,0.16096975805091757,0.2847180928106805,0.20928190718931952,0.3547195500752713,2097.8577898127764,4725.990715154953
1.4934716981132077,829.3245206644592,828.6607135997909,0.16564163614978628,0.28640838507538596,0.20759161492461406,0.35471955007527334,2094.893282935697,4757.814516020746
1.519672955974843,831.2990952935156,830.6665750731423,0.16986724855442334,0.2879372177653761,0.20606278223462385,0.3547195500752756,2092.2119507672805,4789.389943590474
1.545874213836478,833.1042454364296,832.5183280509204,0.17344816381805842,0.28923279809572544,0.20476720190427455,0.35471955007527806,2089.939706564707,4820.713466613282
1.5720754716981133,834.7312894411267,834.1937971915455,0.1763981732398481,0.2903001157784493,0.20369988422155064,0.3547195500752807,2088.0677991576063,4851.7794838120935
1.5982767295597486,836.2139257625494,835.7162648125133,0.17886511103160352,0.2911926574455608,0.20280734255443922,0.3547195500752836,2086.5024214028317,4882.58352496381
1.6244779874213837,837.5943324648542,837.1254950758919,0.181001187873623,0.2919654931417119,0.20203450685828814,0.3547195500752866,2085.1469891004203,4913.123657895017
1.650679245283019,838.906882189826,838.4576298662728,0.18291913178259708,0.29265940802665963,0.2013405919733403,0.3547195500752898,2083.92997149258,4943.400294048781
1.6768805031446543,840.1760772748739,839.7397108123287,0.1846954010306533,0.29330206481403137,0.20069793518596862,0.35471955007529327,2082.8028525288637,4973.415533003142
1.7030817610062894,841.4187644672594,840.9906561377793,0.1863814993976682,0.2939120976460042,0.20008790235399587,0.35471955007529693,2081.732950853634,5003.1725798674615
1.7292830188679247,842.6465723708981,842.2235399994798,0.18801283289619009,0.2945023164692135,0.1994976835307865,0.35471955007530076,2080.6977998345287,5032.675334741821
1.75548427672956,843.8676918356005,843.447513914579,0.18961441771100865,0.2950817721755594,0.19891822782444063,0.35471955007530487,2079.6815256301775,5061.928123190965
1.781685534591195,845.0880411302506,844.6691317379453,0.19120441545981698,0.2956570356646354,0.19834296433536464,0.35471955007530914,2078.672603915798,5090.9355218883875
1.8078867924528303,846.3120079723459,845.8932079645307,0.19279634096751863,0.2962329966196716,0.19776700338032838,0.35471955007531375,2077.6624589557823,5119.702244956314
1.8340880503144656,847.5431526707158,847.1235049010096,0.19440149418128513,0.296813743377926,0.1971862566220741,0.3547195500753186,2076.6439204493668,5148.233069584539
1.8428218029350107,847.9566093226747,847.5361430876463,0.19494533330450195,0.29701050516060895,0.19698949483939107,0.35471955007532024,2076.2988312182943,5157.691761496748
1.8471886792452832,848.1648422921468,847.7435779481679,0.19522281603837488,0.2971108988157355,0.1968891011842645,0.3547195500753211,2076.1227565315353,5162.411546494434
1.8493721174004194,848.269248346189,847.8475666073095,0.19536243463381192,0.2971614130258412,0.1968385869741588,0.3547195500753215,2076.034162549076,5164.769061449382
1.8515555555555556,848.3724640705034,847.951000989336,0.19549617979551176,0.29720980221911153,0.19679019778088852,0.35471955007532197,2075.949295512042,5167.124993467754
1.8526472746331237,848.422338238749,848.0017976957791,0.19555492180247075,0.29723105516233345,0.19676894483766658,0.3547195500753222,2075.9120211911127,5168.302363113376
1.8537389937106918,848.4703547533325,848.0515517884296,0.19560512634017058,0.2972492192368085,0.1967507807631915,0.35471955007532235,2075.8801642603185,5169.479331101217
1.85483071278826,848.5167692097863,848.1003312040717,0.195648179043735,0.29726479576733195,0.19673520423266808,0.3547195500753226,2075.852845474791,5170.655893756418
1.855922431865828,848.5622004032468,848.1484110846862,0.1956871203874155,0.2972788848018929,0.19672111519810714,0.3547195500753228,2075.8281355233107,5171.832048502051
1.8581058700209643,848.6517613962042,848.2432698713177,0.19576058508608274,0.2973054644363046,0.19669453556369537,0.35471955007532324,2075.7815190235196,5174.183129825665
1.8602893081761007,848.740595445397,848.3369441417368,0.1958328253504642,0.29733160106861783,0.19666839893138216,0.3547195500753237,2075.7356794797583,5176.532571691387
1.8733899371069183,849.2673204807757,848.8830718013517,0.19627072179254257,0.297490032635776,0.19650996736422402,0.35471955007532635,2075.4578154202695,5190.594840769856
1.886490566037736,849.788847472229,849.4136292479262,0.1967175583545679,0.2976516987512832,0.19634830124871686,0.35471955007532907,2075.1742784715257,5204.598423846051
1.9126918238993713,850.8315726770977,850.4613412550655,0.19763828325727098,0.29798481835500595,0.19601518164499407,0.35471955007533473,2074.590039061122,5232.431460720671
1.9388930817610064,851.8842007868151,851.5129504884457,0.19859738543562833,0.29833182291266047,0.19566817708733955,0.3547195500753407,2073.981447624575,5260.0360783793185
1.9650943396226417,852.9513451328769,852.5773941340789,0.19959794513316356,0.2986938268608162,0.19530617313918383,0.35471955007534695,2073.346549615359,5287.417001462527
1.991295597484277,854.0349289285537,853.6576864826367,0.20064311678718194,0.2990719714794602,0.1949280285205398,0.35471955007535355,2072.683343407814,5314.578967040449
2.0174968553459123,855.1362015159957,854.7553518318965,0.20173607601769522,0.29946740571251357,0.19453259428748643,0.35471955007536043,2071.989813934943,5341.526650550951
2.0436981132075474,856.2562500922865,855.871546753865,0.20288001370875902,0.2998812840264505,0.19411871597354954,0.3547195500753677,2071.263936444062,5368.264650181594
2.0698993710691824,857.3961307642045,857.0073447652733,0.20407814152002707,0.30031476840438653,0.1936852315956134,0.3547195500753754,2070.5036729994777,5394.797485815022
2.096100628930818,858.5569038370252,858.1638100889465,0.20533370065399703,0.3007690315180814,0.19323096848191865,0.35471955007538347,2069.7069669192965,5421.129601571667
2.122301886792453,859.7396452635403,859.3420186732764,0.20664997197551574,0.3012452603891897,0.19275473961081036,0.35471955007539197,2068.871736354165,5447.265369228727
2.148503144654088,860.9454523570059,860.543066247214,0.20803028709691812,0.30174466039988096,0.19225533960011906,0.35471955007540096,2067.995867253273,5473.2090918518215
2.1747044025157236,862.1754483086779,861.7680733801443,0.2094780403416476,0.30226845962129467,0.19173154037870535,0.3547195500754104,2067.077205772924,5498.96500748716
2.2009056603773587,863.4307866333611,863.0181900275041,0.21099670151051278,0.3028179134323904,0.19118208656760963,0.3547195500754204,2066.1135501758004,5524.537292887763
2.2271069182389938,864.7126557980938,864.2946001578435,0.21258982932710171,0.30339430938451795,0.19060569061548205,0.3547195500754309,2065.102642299268,5549.9300672768895
2.2533081761006293,866.022284062366,865.5985265764638,0.2142610853934544,0.30399897225060035,0.19000102774939961,0.35471955007544204,2064.0421586999078,5575.147396157014
2.2795094339622644,867.3609444970015,866.9312359351287,0.21601424846286632,0.3046332691890545,0.18936673081094554,0.35471955007545375,2062.9297015968054,5600.193295171827
2.3057106918238994,868.729960133008,868.2940438846123,0.21785322883121713,0.30529861495059457,0.18870138504940548,0.3547195500754662,2061.762789739643,5625.071734026313
2.331911949685535,870.1307091926736,869.6883203224126,0.21978208266631735,0.305996477062611,0.18800352293738898,0.35471955007547934,2060.538849316107,5649.786640467407
2.35811320754717,871.5646303613728,871.1154946924415,0.22180502611961286,0.3067283809348052,0.18727161906519482,0.3547195500754932,2059.255204997415,5674.341904325697
2.384314465408805,873.0331705186171,872.5770176108239,0.2239262228342578,0.3074958329793024,0.18650416702069764,0.354719550075508,2057.909214773542,5698.741380580057
2.4105157232704406,874.5379614139691,874.0744813111185,0.22615051315874826,0.30830058444120106,0.18569941555879893,0.35471955007552364,2056.4978072359245,5722.9888937389915
2.4367169811320757,876.0806728098162,875.609555910236,0.22848269975851573,0.3091443729318123,0.1848556270681877,0.3547195500755402,2055.017934887518,5747.088245443091
2.4629182389937108,877.6630339163477,877.1839612617606,0.23092775012828973,0.31002899569792597,0.18397100430207403,0.3547195500755578,2053.4664456400233,5771.043216133722
2.4891194968553463,879.286860569143,878.7995003447995,0.2334908635168799,0.31095633383529386,0.18304366616470613,0.35471955007557654,2051.840040347246,5794.857569188189
2.5153207547169814,880.9540617853935,880.4580681156659,0.23617748050968423,0.3119283557555952,0.18207164424440483,0.3547195500755964,2050.1352667245837,5818.535055326626
2.554622641509434,883.5406104953444,883.030985768353,0.24045149686437206,0.3134747010648105,0.18052529893518948,0.3547195500756287,2047.4232201754046,5853.802844704289
2.593924528301887,886.2365112546728,885.7123920116712,0.24503658479405627,0.31513359252053147,0.17886640747946853,0.35471955007566425,2044.5137853802516,5888.783723795984
2.63322641509434,889.0495475219433,888.5100158273469,0.2499544616950587,0.3169128875082106,0.17708711249178938,0.35471955007570344,2041.3931817204125,5923.490329277408
2.6725283018867927,891.9881105573064,891.432191671005,0.2552283155165952,0.31882097546146815,0.17517902453853187,0.35471955007574674,2038.046695448341,5957.935349429707
2.6987295597484278,894.0213273557112,893.4539131615768,0.2589541299098344,0.3201689805068066,0.17383101949319335,0.3547195500757782,2035.682506538071,5980.759675449984
2.7249308176100633,896.1171886851356,895.5378020147649,0.2628568362944296,0.3215809853308936,0.17241901466910647,0.3547195500758119,2033.2060720782004,6003.47723165502
2.738031446540881,897.1895408334426,896.6039833669936,0.2648770260253612,0.3223118929023431,0.17168810709765697,0.35471955007582967,2031.9241751143643,6014.797171110489
2.7511320754716984,898.2789300183366,897.6868139887306,0.2669455292439523,0.32305990154808,0.17094009845191996,0.35471992889139087,2030.6116211720303,6026.091862074373
2.7773333333333334,900.5269619875216,899.913022832149,0.2712835966658273,0.3246087550588682,0.16939124494113186,0.3547405944587548,2027.8589314756755,6048.607704616411
2.803534591194969,902.8850036427565,902.2426790596495,0.2759210394988116,0.3262307927702186,0.1677692072297814,0.3547963902830257,2024.916275250597,6071.0298394917645
2.829735849056604,905.3654085522625,904.691085679715,0.28088102693329786,0.32792953875326697,0.16607046124673305,0.35489217493971914,2021.7689506525253,6093.3638900892865
2.855937106918239,907.9795328773031,907.270007235335,0.286189124377966,0.3297087111921147,0.16429128880788532,0.3550334798466328,2018.400735333993,6115.615806403108
2.8821383647798746,910.7394030189098,909.9913600038553,0.29187333048893715,0.3315721874362029,0.1624278125637971,0.3552265576086743,2014.7938629477485,6137.791857809467
2.9083396226415097,913.6580136359047,912.8680831033424,0.29796414542802513,0.3335239486934821,0.16047605130651793,0.3554784620206253,2010.9289798339712,6159.898658762548
2.9345408805031448,916.7488177564344,915.9143699699796,0.30449421806479404,0.33556785972387676,0.1584321402761233,0.3557971407308709,2006.7853688856856,6181.943191112716
2.9607421383647803,920.0226422542435,919.1456264686664,0.31149582681291144,0.33770665729044386,0.1562933427095561,0.35619153535318315,2002.3425480660587,6203.93276953622
2.9869433962264154,923.4725066060936,922.5774930944831,0.3189876048787384,0.3399370428202904,0.15406295717970955,0.35667168598151244,1997.5886938070885,6225.874720883049
3.0131446540880504,927.0071422993674,926.2095152944228,0.3269145379340692,0.34222792803214724,0.15177207196785278,0.357248776633479,1992.5587150577787,6247.774726182181
3.026245283018868,928.7155826063403,928.0640228456148,0.3309676568800409,0.34336583550356653,0.1506341644964335,0.3575772934688014,1989.986837381462,6258.708979570024
3.039345911949686,930.3081884240199,929.866108895485,0.33501604769225457,0.34447387180398936,0.14952612819601063,0.35793397082947653,1987.4179599086492,6269.630959613352
3.0524465408805037,931.7524704037943,931.5308945024613,0.33903544446821543,0.3455429649204491,0.14845703507955085,0.35831910128979255,1984.86748039444,6280.538161348613
3.065547169811321,933.0640063741852,933.020676196254,0.34304453576784066,0.3465802729463989,0.14741972705360107,0.35873228830434983,1982.323540146629,6291.427949456707
3.091748427672956,935.470906798054,935.6127467129346,0.351191218608881,0.3486190241321223,0.1453809758678777,0.3596410187732893,1977.1541207404389,6313.148229076545
3.1179496855345916,937.8396967866034,938.0228816153984,0.35969856466237393,0.35067745639130626,0.1433225436086937,0.360660556641556,1971.7558450689526,6334.785784934335
3.1441509433962267,940.3229219692521,940.4924753579592,0.36867233948512707,0.3527873516537783,0.14121264834622174,0.36179738611100715,1966.061600353566,6356.343266761876
3.1703522012578618,942.9803387238854,943.1166024025922,0.37816259815491193,0.35495691638465604,0.13904308361534398,0.3630614107161814,1960.039624502216,6377.826869843333
3.1965534591194973,945.8419877213888,945.9355422971457,0.38820756766838,0.35718839250456647,0.1368116074954335,0.3644642191192232,1953.6656608472272,6399.244166321169
3.2227547169811324,948.9310349075922,948.9747385393745,0.39884469176582743,0.35948266593265155,0.13451733406734845,0.36601847260047765,1946.9159497306496,6420.60348991315
3.2489559748427674,952.2702482282206,952.257114801284,0.4101126689618756,0.36184020183126414,0.13215979816873583,0.3677377071762472,1939.7659352864487,6441.913812998722
3.275157232704403,955.883599428573,955.8063066562336,0.4220515549167688,0.36426118129435797,0.12973881870564202,0.3696362339484869,1932.190200481528,6463.184753614649
3.301358490566038,959.7965807544563,959.6473930394867,0.43470241137509485,0.3667454818999959,0.1272545181000041,0.37172903153781517,1924.1626898791576,6484.426611924473
3.327559748427673,964.0361688774915,963.8069731665844,0.44810673925816263,0.36929262530447565,0.12470737469552431,0.3740315933813896,1915.657069366156,6505.650410300678
3.3537610062893086,968.6306391197925,968.3130296139021,0.4623056983747063,0.3719017120695926,0.1220982879304074,0.3765597105958466,1906.64722127989,6526.867929254256
3.3799622641509437,973.6092539626338,973.1946572846689,0.4773390764816472,0.37457134591296326,0.11942865408703672,0.37932917473166744,1897.1078985834029,6548.091734965625
3.4061635220125788,979.0018079000826,978.4816522569756,0.49324396522168457,0.3772995469133319,0.11670045308666813,0.38235538552017423,1887.0155650397603,6569.335194243873
3.4323647798742143,984.8380008709158,984.2039344712227,0.5100531039660051,0.38008365310672804,0.11391634689327196,0.3856528500772651,1876.3494461148284,6590.61247202142
3.4585660377358494,991.1466114648601,990.3907741843856,0.5277928630040943,0.3829202103539338,0.11107978964606621,0.38923456335109863,1865.0928087297732,6611.9385056025885
3.4847672955974844,997.9544449664976,997.0697942251202,0.5464808566737254,0.38580485111133805,0.10819514888866194,0.3931112657782114,1853.234475832378,6633.328949034267
3.51096855345912,1005.2850404505847,1004.2657275208015,0.566123206825921,0.38873216381692116,0.1052678361830788,0.3972905838151926,1840.7705628458034,6654.800080312049
3.537169811320755,1013.1571366561676,1011.9989231616679,0.586711518389469,0.3916955560471147,0.10230444395288527,0.40177607253668335,1827.7063968025225,6676.36866385981
3.56337106918239,1021.5829189284374,1020.2836154060996,0.608219680700072,0.3946871164120193,0.09931288358798068,0.4065661964564115,1814.05854603806,6698.05176104073
3.5895723270440256,1030.5660987422614,1029.1259986185155,0.6306006667430322,0.3976974822799703,0.09630251772002969,0.41165330376399206,1799.8568512086856,6719.866482600563
3.6157735849056607,1040.099911192866,1038.5221857163058,0.6537835600577565,0.40071572271916484,0.09328427728083521,0.417022667713043,1785.146311847922,6741.829679106098
3.6419748427672958,1050.165150389804,1048.4561647925527,0.6776710850117055,0.40372924827780055,0.09027075172219941,0.42265168329058234,1769.9886535135724,6763.957568732196
3.6681761006289313,1060.7283921821102,1058.8979025938988,0.7021379379418815,0.4067237610634585,0.08727623893654152,0.42850931334221887,1754.4633867499642,6786.265306128891
3.6943773584905664,1071.7405714389477,1069.8017674439193,0.7270302028579264,0.40968325962905205,0.084316740370948,0.43455587228673676,1738.6681778493803,6808.766501325713
3.7205786163522014,1083.1360812007058,1081.10545097732,0.7521660793530613,0.41259011301967297,0.08140988698032706,0.4407432154284822,1722.7183869613675,6831.47270325105
3.746779874213837,1094.8317631727236,1092.728845901138,0.7773362002393274,0.41542500978298014,0.0785749902170199,0.4470149048678655,1706.746866539565,6854.394578312068
3.772981132075472,1106.7030948641118,1104.5512915528598,0.8022522707902106,0.4181612469278943,0.07583875307210569,0.45329333814623646,1690.9365519434346,6877.593132650105
3.799182389937107,1118.6171194814215,1116.440945600473,0.8266313661162622,0.4207742449852591,0.07322575501474093,0.4595007320978522,1675.4669711406837,6901.110568739834
3.8253836477987426,1130.45005533772,1128.2742444917549,0.8502289051452107,0.4232444487787584,0.07075555122124165,0.4655681521127361,1660.493321303715,6924.945286345112
3.8515849056603777,1142.0719494393168,1139.9212297127592,0.8728017715712598,0.42555283788791787,0.06844716211208211,0.47142665877970286,1646.1698701478256,6949.0913720591525
3.8777861635220128,1153.3498327328412,1151.2483703829914,0.8941147547527445,0.4276814548000576,0.06631854519994243,0.47700911006050867,1632.6458689056085,6973.538426267534
3.9039874213836483,1164.151222310589,1162.1221342182082,0.9139464124095484,0.42961394440192585,0.0643860555980741,0.4822517429306374,1620.0618321941813,6998.271512106556
3.9301886792452834,1174.3475226263938,1172.4125480337163,0.9320940153233994,0.43133608343891716,0.06266391656108282,0.4870954329198132,1608.5464003909321,7023.271232551327
3.9563899371069184,1183.817045664443,1181.996418407465,0.9483772724495285,0.4328362824340995,0.06116371756590047,0.49148653994376795,1598.2139758905264,7048.513929612088
3.982591194968554,1192.4473756561429,1190.7599371759297,0.962640561089661,0.434106052808399,0.05989394719160102,0.49537724806387623,1589.1633079645637,7073.971989260608
4.008792452830189,1200.1367511630926,1198.6003739680532,0.9747533433915092,0.4351404528934156,0.05885954710658439,0.49872527016445956,1581.477228474799,7099.614224459451
4.021893081761007,1203.5997130079365,1202.1454891880371,0.9799689468313151,0.435568930334676,0.05843106966532408,0.5001838056039978,1578.1677045663807,7112.493788439017
4.0349937106918246,1206.7939734069512,1205.4264508167464,0.9846082297389637,0.4359385705399871,0.058061429460012935,0.5014926646759874,1575.2238807350673,7125.406294469172
4.048094339622642,1209.7093788481686,1208.4333767213134,0.9886604938702219,0.4362500011580303,0.05774999884196974,0.5026473490914841,1572.6525454753212,7138.347021413296
4.061194968553459,1212.3358968054727,1211.1567241599682,0.9921154760665889,0.43650421923251737,0.057495780767482636,0.5036431485811615,1570.4602112010607,7151.311093244254
4.069928721174004,1213.9213476171265,1212.8100666442874,0.9940818367677022,0.43664260486026646,0.057357395139733605,0.504216195103905,1569.2124710636028,7159.9642999073785
4.078662473794549,1215.3705764616275,1214.330274198793,0.9957747537273338,0.43675675854982515,0.05724324145017485,0.5047145412230101,1568.1382426991327,7168.624120713652
4.087396226415095,1216.6800079884135,1215.714297617986,0.9971904429110835,0.4368473920697923,0.05715260793020773,0.5051361061007498,1567.23992723965,7177.288992463008
4.0961299790356405,1217.845556545939,1216.9588138070035,0.9983244137857673,0.43691541803758,0.05708458196242,0.5054783524383002,1566.5203741209111,7185.957313866789
4.104863731656185,1218.8623538306308,1218.0600886348775,0.9991711167437505,0.43696205259351595,0.057037947406484005,0.5057380562392513,1565.9831048068013,7194.627438807643
4.109230607966458,1219.3131576219835,1218.5557038243132,0.9994846501033378,0.4369778608962777,0.05702213910372231,0.50583568476023,1565.784154452999,7198.962648516082
4.11359748427673,1219.7244582205556,1219.013892672732,0.9997237497523006,0.43698904001203265,0.057010959987967375,0.5059110122438734,1565.6324354786045,7203.297666297024
4.117964360587003,1220.095430656733,1219.434135677413,0.9998877166409182,0.43699598999874817,0.05700401000125186,0.505963385715012,1565.528391460624,7207.632269172378
4.122331236897275,1220.4256871778032,1219.8161767508534,0.9999771207017761,0.43699929908707513,0.05700070091292484,0.5059924231454304,1565.4716607524074,7211.966230799008
4.123786862334033,1220.5269234590255,1219.935117931947,0.9999911252881094,0.43699974680441467,0.05700025319558539,0.5059970423077158,1565.4627742421824,7213.410703215102
4.12524248777079,1220.6240875707344,1220.0499944219748,0.9999981990654435,0.436999953082618,0.05700004691738198,0.5059993953324003,1565.4582856273016,7214.855071568039
4.12572769624971,1220.6556634818346,1220.087416503676,0.9999992539006741,0.43699998130911505,0.057000018690884925,0.505999748746818,1565.4576162891408,7215.336503309444
4.126212904728629,1220.6868917600239,1220.1244226004283,0.9999998036609579,0.43699999536005407,0.0570000046399459,0.5059999335999462,1565.4572674426795,7215.817922467671
4.1266981132075475,1220.7178281687648,1220.1610295289752,0.9999999868862692,0.43699999981515003,0.05700000018484992,0.5059999954360334,1565.4571511783668,7216.299328845551
4.126819415327278,1220.7255253412538,1220.1701213715046,0.9999999969127404,0.43700000004832557,0.05699999995167443,0.5059999988304495,1565.4571448161414,7216.419678423732
4.126940717447007,1220.7332106719605,1220.179190056874,0.9999999998792797,0.4370000001160583,0.056999999883941735,0.5059999998360151,1565.457142933745,7216.540027191214
4.127062019566736,1220.7408858705,1220.1882360384764,1.0000000000117466,0.4370000001187109,0.05699999988128915,0.5059999998812892,1565.4571428496893,7216.660375146332
4.127183321686466,1220.7485520654366,1220.1972596903918,1.0000000000117466,0.43700000011835005,0.056999999881649936,0.5059999998816499,1565.4571428496893,7216.780722287661
4.127425925925926,1220.7638579471106,1220.2152408970949,1.0000000000117466,0.4370000001176283,0.05699999988237169,0.5059999998823717,1565.4571428496893,7217.021414123594
4.127668530165385,1220.779129058083,1220.233135400697,1.0000000000117466,0.4370000001169063,0.056999999883093684,0.5059999998830936,1565.4571428496893,7217.262102688451
4.128153738644305,1220.809569661208,1220.2686709965305,1.0000000000117466,0.43700000011546164,0.05699999988453837,0.5059999998845384,1565.4571428496893,7217.743469963737
4.1296093640810625,1220.900124700216,1220.3733653379036,1.0000000000117466,0.437000000111122,0.05699999988887802,0.505999999888878,1565.4571428496893,7219.187492249381
4.13106498951782,1220.989629791299,1220.4754402126455,1.0000000000117466,0.437000000106774,0.05699999989322603,0.5059999998932261,1565.4571428496893,7220.631393700824
4.133976240391335,1221.1659447095983,1220.672862023729,1.0000000000117466,0.4370000000980532,0.05699999990194684,0.5059999999019469,1565.4571428496893,7223.518827235295
4.13688749126485,1221.3393027252805,1220.8628967903917,1.0000000000117466,0.4370000000892996,0.05699999991070038,0.5059999999107004,1565.4571428496893,7226.405758766674
4.139798742138365,1221.5103271460555,1221.0470945167767,1.0000000000117466,0.43700000008051365,0.05699999991948636,0.5059999999194864,1565.4571428496893,7229.292179130572
4.144165618448637,1221.7635375514521,1221.3150558560008,1.0000000000117466,0.43700000006727435,0.05699999993272566,0.5059999999327257,1565.4571428496893,7233.620836208371
4.14853249475891,1222.0138336816221,1221.5756935070522,1.0000000000117466,0.437000000053963,0.05699999994603698,0.505999999946037,1565.4571428496893,7237.948310288363
4.151443745632425,1222.1795250300768,1221.7464930124188,1.0000000000117466,0.4370000000450489,0.05699999995495108,0.505999999954951,1565.4571428496893,7240.832629972109
4.15435499650594,1222.344510283886,1221.9155025027142,1.0000000000117466,0.43700000003610295,0.05699999996389705,0.505999999963897,1565.4571428496893,7243.716416436585
4.157266247379455,1222.5089419116955,1222.0831011017249,1.0000000000117466,0.43700000002712514,0.056999999972874894,0.5059999999728749,1565.4571428496893,7246.599668030361
4.161633123689727,1222.7548079949643,1222.3324918522355,1.0000000000117466,0.4370000000135985,0.056999999986401484,0.5059999999864014,1565.4571428496893,7250.923540148644
4.166,1223.0,1222.580129354611,1.0000000000117466,0.437,0.05700000000000001,0.5059999999999999,1565.4571428496893,7255.246204068958
