z,T,t,fs,x,y,w,rhob,p
0.0,556.2446016655596,298.0,0.0,0.22647899796440177,0.26752100203559825,0.3547195532469319,2200.0,2040.0
0.0026168341708542714,579.9934469593946,352.6377514531925,6.629688772388653e-07,0.22647923782750204,0.267520762172498,0.3547195532469319,2199.9995793178346,2045.4589078659137
0.005233668341708543,600.7815450508873,400.02038974564056,2.960198283437055e-06,0.22648006896842937,0.2675199310315706,0.3547195532469319,2199.9981216273236,2051.255163441462
0.007850502512562814,619.0460614281237,441.3261072074787,8.279792584619204e-06,0.2264819936053545,0.2675180063946455,0.3547195532469319,2199.994746116757,2057.348322121257
0.010467336683417086,635.1442352472119,477.4903841336512,1.796626680387276e-05,0.2264854981857606,0.2675145018142394,0.3547195532469319,2199.9885996337302,2063.7023261516574
0.015701005025125628,661.9743615829188,537.2775540159112,5.4418583105668723e-05,0.2264986866866101,0.26750131331338994,0.3547195532469319,2199.9654690767943,2077.0680019998154
0.02093467336683417,683.1087661099077,583.9553906305405,0.00011709284037362577,0.22652136232369102,0.267478637676309,0.3547195532469319,2199.9256995745186,2091.1354629822936
0.026168341708542715,699.8684347690399,620.7106339391709,0.00020674232499195616,0.2265537976371086,0.2674462023628914,0.3547195532469319,2199.868813134407,2105.733255168094
0.031402010050251256,713.2284913762046,649.840013348083,0.00032184971180858487,0.22659544365642445,0.2674045563435756,0.3547195532469319,2199.7957725642987,2120.725724614562
0.04186934673366834,732.5125878351193,691.5910952209471,0.0006181570732664187,0.2267026480890849,0.2672973519109151,0.3547195532469319,2199.6077528445667,2151.4879432907505
0.04884757118927974,741.4301823934754,710.754413239113,0.000855929186376142,0.22678867438408815,0.2672113256159118,0.3547195532469319,2199.456876248565,2172.331880425396
0.055825795644891124,748.1453360338678,725.1012110361107,0.0011192200563947612,0.2268839334023122,0.26711606659768783,0.35471955324693194,2199.2898069076437,2193.2965308707803
0.06280402010050251,753.2236883990748,735.8822856569321,0.0014033714603660717,0.22698673979194267,0.2670132602080573,0.35471955324693194,2199.1095006639066,2214.293490221033
0.06978224455611391,757.0808966892247,744.0106245851961,0.0017046420652458436,0.22709573993326387,0.2669042600667361,0.35471955324693194,2198.9183315535133,2235.258716877995
0.0767604690117253,760.0245312526083,750.1584321924727,0.0020200790431127024,0.22720986548885577,0.26679013451114425,0.35471955324693194,2198.718173272329,2256.1461423082374
0.08373869346733669,762.283345931437,754.8237938238844,0.002347376062755273,0.22732828202474473,0.2666717179752553,0.35471955324693194,2198.5104892863505,2276.9229608014552
0.09071691792294807,764.0281129237411,758.3775105927798,0.002684743466515937,0.22745034204019746,0.26654965795980257,0.35471955324693194,2198.2964152100612,2297.5661505783623
0.09769514237855947,765.3866680852294,761.0965770128469,0.003030798400023391,0.22757554521649886,0.26642445478350113,0.354719553246932,2198.0768285238246,2318.0599006681005
0.10467336683417086,766.4548958817333,763.1884321402608,0.0033844753552201724,0.22770350605129017,0.26629649394870986,0.354719553246932,2197.852405338169,2338.3937058377783
0.11165159128978225,767.3048173765454,764.8087074563922,0.0037449548993929555,0.22783392807262845,0.2661660719273715,0.354719553246932,2197.6236656182678,2358.5609552783844
0.11862981574539362,767.9905831791208,766.0743168066458,0.004111607635946129,0.22796658356391356,0.2660334164360864,0.354719553246932,2197.3910087432364,2378.5578868147963
0.12560804020100502,768.5529352773982,767.0731677882476,0.004483950512469799,0.2281012977560838,0.2658987022439162,0.35471955324693205,2197.1547412305304,2398.3828120389567
0.1325862646566164,769.0225407792792,767.8713984559491,0.004861612948612122,0.22823793657263092,0.265762063427369,0.35471955324693205,2196.915098229265,2418.03554242544
0.13956448911222782,769.4224893440147,768.5187876942139,0.005244310680932466,0.2283763971666303,0.2656236028333697,0.35471955324693205,2196.672260116776,2437.516964633377
0.1465427135678392,769.7701677052847,769.0528099806673,0.005631825624662845,0.22851660063469695,0.265483399365303,0.35471955324693205,2196.426365277196,2456.8287265863974
0.1570100502512563,770.2214062659531,769.7010313666005,0.006221775127432448,0.22873004521950768,0.2652699547804923,0.3547195532469321,2196.0520170341388,2485.4831224682275
0.16747738693467337,770.6151304315166,770.2236656518419,0.006821785138006527,0.22894712971061756,0.2650528702893824,0.3547195532469321,2195.6712849677147,2513.7694972783656
0.17794472361809044,770.9718411088204,770.6648794501839,0.007431578826453928,0.22916775395055647,0.26483224604944355,0.35471955324693216,2195.28434473838,2541.697547753316
0.18841206030150753,771.3049258613044,771.0535122460587,0.00805096911989932,0.229391850256087,0.264608149743913,0.35471955324693216,2194.89131505189,2569.2773732794994
0.19887939698492463,771.6231232776312,771.4083874890254,0.00867982930464644,0.22961937278201033,0.26438062721798966,0.3547195532469322,2194.4922763135173,2596.51913077594
0.20934673366834172,771.9321347367556,771.7417853622774,0.009318073409162813,0.22985029042370142,0.2641497095762986,0.3547195532469322,2194.0872830758826,2623.432827275406
0.21981407035175882,772.2356783410013,772.0617133190555,0.009965643123804309,0.23008458208464658,0.26391541791535345,0.3547195532469323,2193.676372338955,2650.028199732251
0.23028140703517588,772.5361778394687,772.3733901640559,0.01062249908220846,0.2303222335220388,0.26367776647796115,0.35471955324693233,2193.259569082378,2676.3146497464063
0.24074874371859295,772.8352127501481,772.6802156885908,0.011288615049261071,0.2305632352439758,0.2634367647560242,0.35471955324693233,2192.836889953456,2702.3012125509076
0.25121608040201004,773.1338123018045,772.98440387519,0.011963974043922309,0.23080758110669272,0.2631924188933073,0.3547195532469324,2192.4083457273864,2727.9965470914667
0.26168341708542714,773.4326472763379,773.2873961742844,0.012648565748964719,0.23105526737740176,0.26294473262259827,0.3547195532469324,2191.9739429508927,2753.408938824598
0.27215075376884423,773.7321551401029,773.5901310812906,0.013342384776119744,0.2313062921066195,0.2626937078933805,0.35471955324693244,2191.5336850430613,2778.5463099350986
0.28261809045226133,774.032621611323,773.8932198721321,0.014045429499595216,0.23156065470613205,0.262439345293868,0.3547195532469325,2191.0875730355283,2803.4162336408426
0.2930854271356784,774.3342337961832,774.1970610921092,0.014757701267216407,0.23181835566358447,0.26218164433641555,0.3547195532469325,2190.6356060730395,2828.025950509263
0.30355276381909546,774.6371147811136,774.5019150957943,0.01547920386254313,0.23207939634787422,0.26192060365212577,0.35471955324693255,2190.1777817547654,2852.3823855102232
0.31402010050251256,774.9413461378695,774.8079525459468,0.016209943133938226,0.23234377887494745,0.26165622112505255,0.3547195532469326,2189.714096369668,2876.49216503799
0.32448743718592965,775.2469825550122,775.1152859482644,0.016949926734874575,0.23261150601384173,0.26138849398615827,0.35471955324693266,2189.2445450612904,2900.3616334558287
0.33495477386934674,775.5540613438775,775.4239901421234,0.01769916393855568,0.2328825811196155,0.2611174188803845,0.35471955324693266,2188.7691219453895,2923.9968689179414
0.34542211055276384,775.8626086101618,775.7341156061323,0.018457665502381444,0.23315700808431167,0.2608429919156883,0.3547195532469327,2188.287820195932,2947.4036983483334
0.35588944723618093,776.1726432577871,776.0456970921064,0.01922544356604254,0.2334347913000879,0.2605652086999121,0.3547195532469328,2187.8006321097646,2970.5877115325593
0.36635678391959803,776.4841795844494,776.3587592237476,0.020002511572489806,0.23371593563062326,0.26028406436937673,0.35471955324693283,2187.3075491567593,2993.55427432396
0.37682412060301507,776.797228962847,776.6733201244919,0.02078888420463904,0.234000446388218,0.259999553611782,0.3547195532469329,2186.8085620199763,3016.3085409922805
0.38729145728643216,777.1118009287131,776.989393766554,0.021584577333061777,0.23428832931486784,0.2597116706851322,0.3547195532469329,2186.303660628858,3038.855465756802
0.39775879396984926,777.4279038842701,777.3069914907629,0.02238960797149265,0.23457959056616665,0.2594204094338333,0.35471955324693294,2185.792834187461,3061.199813552882
0.40822613065326635,777.7455455525338,777.6261229890881,0.023203994238028748,0.23487423669726823,0.2591257633027318,0.354719553246933,2185.276071199075,3083.346170083037
0.41869346733668344,778.0647332703353,777.9467969392471,0.024027755320587454,0.2351722746503888,0.2588277253496112,0.35471955324693305,2184.7533594881447,3105.298951203282
0.4291608040201005,778.3854741770169,778.2690214141909,0.02486091144564667,0.23547371174349752,0.25852628825650253,0.3547195532469331,2184.2246862201036,3127.0624116934737
0.4396281407035176,778.7077753357105,778.5928041460311,0.025703483849594692,0.2357785556599503,0.25822144434004973,0.35471955324693316,2183.690037919553,3148.6406534576936
0.446606365159129,778.9235130685576,778.8095287362588,0.026270440984602374,0.2359836815727938,0.2580163184272062,0.3547195532469332,2183.330279319228,3162.92520835674
0.45358458961474035,779.1399494899218,779.0269514686623,0.02684159980951235,0.2361903276631313,0.25780967233686874,0.3547195532469333,2182.9678545665865,3177.130343190695
0.46056281407035177,779.3570867190664,779.2450745633439,0.027416967331911842,0.236398496466318,0.257601503533682,0.3547195532469333,2182.6027592150162,3191.257169597155
0.4675410385259631,779.574926893313,779.4639002458237,0.027996550742698592,0.23660819058403107,0.2573918094159689,0.35471955324693333,2182.234988701583,3205.3067737139363
0.4745192629815746,779.7934721704219,779.6834307523936,0.028580357413242594,0.23681941268324297,0.257180587316757,0.3547195532469334,2181.864538348837,3219.280217001908
0.48149748743718596,780.0127247303326,779.9036683340839,0.02916839489265522,0.23703216549523304,0.25696783450476696,0.35471955324693344,2181.491403366543,3233.178537033954
0.48847571189279737,780.2326867764322,780.1246152595967,0.02976067090515892,0.23724645181463616,0.25675354818536383,0.35471955324693344,2181.115578853352,3247.002748251738
0.49545393634840873,780.4533605364726,780.3462738174705,0.030357193347551464,0.23746227449852522,0.2565377255014748,0.3547195532469335,2180.7370597984063,3260.7538426918723
0.5024321608040201,780.6747482632286,780.5686463176744,0.030957970286759402,0.2376796364655259,0.256320363534474,0.35471955324693355,2180.355841082896,3274.4327906829703
0.5094103852596316,780.8968522349642,780.7917350927767,0.031563009957476046,0.23789854069496225,0.2561014593050377,0.3547195532469336,2179.9719174815546,3288.0405415149994
0.5163886097152429,781.119674755758,781.0155424988003,0.03217232075987958,0.23811899022603084,0.25588100977396916,0.3547195532469336,2179.5852836641097,3301.57802408227
0.5233668341708543,781.3432181557262,781.2400709158449,0.032785911257427566,0.23834098815700305,0.255659011842997,0.35471955324693366,2179.19593419668,3315.0461475013117
0.5303450586264656,781.5674847911703,781.4653227485366,0.03340379017472395,0.2385645376444532,0.25543546235554676,0.3547195532469337,2178.80386354313,3328.445801704832
0.5373232830820771,781.7924770446705,781.6913004263529,0.03402596639545552,0.2387896419025121,0.25521035809748793,0.35471955324693377,2178.409066066381,3341.7778580128734
0.5443015075376885,782.0181973251417,781.918006403853,0.03465244896039443,0.23901630420214412,0.2549836957978559,0.3547195532469338,2178.0115360296745,3355.043169682237
0.5512797319932998,782.2446480678623,782.1454431608415,0.03528324706546413,0.23924452787044778,0.25475547212955224,0.3547195532469339,2177.611267597803,3368.2425724351715
0.5582579564489113,782.4718317344834,782.3736132024828,0.03591837005986574,0.23947431628997753,0.2545256837100225,0.35471955324693394,2177.208254838298,3381.376884968278
0.5652361809045227,782.699750813029,782.6025190593815,0.03655782744426231,0.23970567289808703,0.25429432710191296,0.35471955324693394,2176.802491722582,3394.446909442531
0.572214405360134,782.9284078178868,782.8321632876359,0.03720162886901865,0.2399386011862923,0.2540613988137077,0.354719553246934,2176.393972127085,3407.4534319552668
0.5791926298157454,783.1578052897964,783.062548468877,0.03784978413249425,0.24017310469965394,0.2538268953003461,0.35471955324693405,2175.982689834327,3420.3972229949404
0.5861708542713568,783.3879457958377,783.2936772102943,0.03850230317938708,0.2404091870361781,0.2535908129638219,0.3547195532469341,2175.5686385339714,3433.2790378794234
0.5931490787269682,783.6188319294189,783.5255521446549,0.03915919609912621,0.24064685184623485,0.25335314815376514,0.35471955324693416,2175.1518118238428,3446.099617178557
0.6001273031825796,783.8504663102696,783.7581759303191,0.03982047312431124,0.24088610283199355,0.2531138971680065,0.3547195532469342,2174.732203210919,3458.8596871216537
0.6071055276381909,784.0828515844363,783.9915512512548,0.040486144629196544,0.24112694374687446,0.2528730562531255,0.35471955324693427,2174.3098061122905,3471.5599599906013
0.6140837520938023,784.3159904242857,784.2256808170503,0.04115622112821855,0.2413693783950159,0.2526306216049841,0.3547195532469343,2173.884613856097,3484.2011344991797
0.6210619765494138,784.5498855285118,784.4605673629311,0.04183071327456423,0.24161341063075636,0.25238658936924363,0.3547195532469344,2173.4566196824344,3496.783896159181
0.6280402010050251,784.7845396221531,784.6962136497781,0.04250963185877917,0.24185904435813085,0.2521409556418691,0.35471955324693444,2173.0258167442394,3509.308917633899
0.6350184254606365,785.0199554566162,784.9326224641496,0.04319298780741357,0.2421062835303811,0.2518937164696189,0.3547195532469345,2172.592198108147,3521.776859079505
0.6419966499162478,785.2561358097103,785.1697966183083,0.04388079218170457,0.2423551321494787,0.25164486785052126,0.35471955324693455,2172.155756755329,3534.1883684748273
0.6489748743718593,785.4930834856916,785.4077389502521,0.04457305617629355,0.24260559426566114,0.25139440573433885,0.35471955324693466,2171.7164855823057,3546.544081940001
0.6559530988274708,785.7308013153198,785.6464523237529,0.04526979111797677,0.24285767397697972,0.2511423260230203,0.3547195532469347,2171.2743774017385,3558.8446240444578
0.6629313232830821,785.9692921559283,785.8859396283996,0.045971008464488164,0.24311137542885913,0.25088862457114086,0.35471955324693477,2170.829424943205,3571.0906081046796
0.6699095477386935,786.2085588915097,786.12620377965,0.04667671980331287,0.24336670281366832,0.2506332971863317,0.3547195532469348,2170.3816208539492,3583.2826364721373
0.6768877721943048,786.4486044328187,786.3672477188899,0.047386936850530206,0.24362366037030175,0.2503763396296983,0.3547195532469349,2169.930957699616,3595.421300811802
0.6838659966499163,786.6894317174944,786.6090744135015,0.048101671449684934,0.2438822523837711,0.2501177476162289,0.35471955324693494,2169.47742796497,3607.507182371614
0.6908442211055277,786.9310437102073,786.8516868569421,0.04882093557068559,0.24414248318480658,0.24985751681519341,0.35471955324693505,2169.02102405459,3619.540852243252
0.697822445561139,787.1734434028317,787.0950880688342,0.04954474130872886,0.24440435714946793,0.24959564285053207,0.3547195532469351,2168.5617382935557,3631.5228716145657
0.7048006700167505,787.4166338146503,787.3392810950683,0.05027310088324869,0.24466787869876397,0.24933212130123603,0.35471955324693516,2168.0995629281124,3643.453792013977
0.7117788944723619,787.6606179925938,787.5842690079207,0.05100602663688939,0.24493305229828136,0.24906694770171864,0.3547195532469352,2167.6344901263233,3655.334155547173
0.7187571189279733,787.9053990115262,787.830054906189,0.05174353103450156,0.2451998824578211,0.2488001175421789,0.3547195532469353,2167.166511978707,3667.1644951263884
0.7257353433835846,788.1509799745777,788.0766419153462,0.05248562666215981,0.2454683737310432,0.2485316262689568,0.3547195532469354,2166.69562049886,3678.9453346925497
0.7327135678391961,788.3973640135398,788.3240331877183,0.053232326226201755,0.245738530715119,0.248261469284881,0.35471955324693544,2166.221807624065,3690.6771894305743
0.7396917922948075,788.6445542893298,788.5722319026883,0.05398364255228684,0.24601035805039073,0.24798964194960926,0.35471955324693555,2165.745065215893,3702.360565978053
0.7466700167504188,788.8925539925406,788.8212412669313,0.05473958858447471,0.24628386042003783,0.24771613957996216,0.3547195532469356,2165.2653850607826,3713.995962627597
0.7536482412060301,789.1413663440904,789.0710645146869,0.05550017738432222,0.2465590425497506,0.24744095745024938,0.35471955324693566,2164.782758870617,3725.5838695230677
0.7606264656616415,789.3909945959917,789.3217049080718,0.056265422129998036,0.24683590920740953,0.2471640907925905,0.35471955324693577,2164.2971782832824,3737.124768849919
0.767604690117253,789.6414420322651,789.5731657374464,0.057035336115414725,0.24711446520277136,0.24688553479722866,0.3547195532469358,2163.8086348632214,3748.619135019877
0.7745829145728643,789.8927119700224,789.825450321839,0.057809932749377214,0.24739471538716123,0.24660528461283876,0.35471955324693594,2163.3171201019736,3760.0674348501607
0.7815611390284758,790.1448077607567,790.0785620094422,0.058589225554747534,0.24767666465317018,0.24632333534682985,0.354719553246936,2162.8226254187034,3771.470127737453
0.788539363484087,790.3977327918784,790.3325041781918,0.05937322816762493,0.24796031793435866,0.24603968206564134,0.3547195532469361,2162.3251421607206,3782.827665826806
0.7955175879396985,790.6514904885478,790.5872802364482,0.06016195433654143,0.24824568020496549,0.2457543197950345,0.35471955324693616,2161.824661603993,3794.140494175678
0.80249581239531,790.906084315865,790.8428936237957,0.06095541792167203,0.2485327564796221,0.2454672435203779,0.35471955324693627,2161.321174953645,3805.4090509132707
0.8094740368509212,791.1615177814889,791.0993478119844,0.06175363289405984,0.24882155181307206,0.24517844818692794,0.3547195532469364,2160.8146733444523,3816.6337673953517
0.8164522613065327,791.4177944387753,791.3566463060432,0.0625566133348559,0.2491120712998963,0.24488792870010373,0.35471955324693644,2160.3051478413195,3827.81506835473
0.8234304857621441,791.6749178905413,791.614792645595,0.06336437343457342,0.24940432007424296,0.24459567992575704,0.35471955324693655,2159.7925894397586,3838.95337204754
0.8304087102177555,791.9328917935856,791.8737904064184,0.06417692749235737,0.24969830330956347,0.24430169669043653,0.3547195532469366,2159.2769890663494,3850.0490903955047
0.8373869346733669,792.1917198641249,792.133643202299,0.0649942899152692,0.24999402621835357,0.24400597378164646,0.3547195532469367,2158.758337579194,3861.102629124332
0.8443651591289782,792.4514058843397,792.3943546872351,0.06581647521758786,0.2502914940519003,0.2437085059480997,0.3547195532469368,2158.2366257683598,3872.1143878983967
0.8513433835845897,792.7119537102618,792.6559285580631,0.06664349802012767,0.25059071210003553,0.24340928789996444,0.35471955324693694,2157.7118443563136,3883.084760451865
0.8583216080402011,792.9733672812955,792.9183685575933,0.06747537304957464,0.25089168569089565,0.24310831430910435,0.354719553246937,2157.1839839983427,3894.0141347164167
0.8652998324958124,793.2356506317151,793.1816784783547,0.06831211513784292,0.2511944201906886,0.24280557980931142,0.3547195532469371,2156.653035282962,3904.9028929457154
0.8722780569514238,793.4988079045721,793.4458621670808,0.0691537392214533,0.25149892100346927,0.24250107899653073,0.3547195532469372,2156.118988732307,3915.7514118367867
0.8792562814070352,793.7628433685281,793.7109235300818,0.07000026034093712,0.2518051935709237,0.24219480642907634,0.3547195532469373,2155.5818348025177,3926.560062648468
0.8862345058626465,794.0277614382519,793.9768665396948,0.07085169364026829,0.2521132433721635,0.24188675662783646,0.35471955324693744,2155.0415638840936,3937.3292113170987
0.893212730318258,794.2935666991599,794.2436952420318,0.07170805436632888,0.2524230759235329,0.2415769240764671,0.35471955324693755,2154.4981663022345,3948.0592185696246
0.9001909547738693,794.560263937453,794.5114137663026,0.07256935786841258,0.2527346967784284,0.24126530322157158,0.35471955324693766,2153.9516323171547,3958.7504400343128
0.9071691792294807,794.8278581766166,794.7800263360431,0.07343561959777402,0.2530481115271364,0.2409518884728636,0.35471955324693777,2153.4019521243727,3969.403226349284
0.9141474036850922,795.0963547218153,795.0495372826575,0.0743068551072312,0.25336332579668897,0.24063667420331106,0.3547195532469379,2152.8491158549573,3980.017923269088
0.9211256281407035,795.3657592139359,795.3199510617707,0.07518308005083216,0.2536803452507433,0.24031965474925668,0.354719553246938,2152.293113575745,3990.5948717695733
0.9281038525963149,795.6360776954325,795.5912722729943,0.07606431018359824,0.2539991755894891,0.24000082441051093,0.3547195532469381,2151.733935289499,4001.1344081513507
0.9350820770519263,795.9073166906103,795.863505683858,0.07695056136135973,0.2543198225495886,0.23968017745041145,0.3547195532469382,2151.1715709350165,4011.636864142168
0.9420603015075377,796.1794833035925,796.1366562588121,0.07784184954070295,0.2546422919041579,0.23935770809584217,0.3547195532469383,2150.606010387158,4022.1025669985856
0.9490385259631492,796.4525853379472,796.4107291944309,0.07873819077905252,0.25496658946279643,0.23903341053720362,0.35471955324693843,2150.0372434568003,4032.531839607395
0.9560167504187606,796.7266314428541,796.6857299622026,0.07963960123491821,0.2552927210716765,0.2387072789283235,0.35471955324693855,2149.4652598906773,4042.925000587304
0.9629949748743719,797.0016312918025,796.9616643606207,0.08054609716834223,0.25562069261370496,0.23837930738629506,0.3547195532469387,2148.8900493710935,4053.2823643915203
0.9699731993299833,797.2775958011637,797.2385385787094,0.08145769494159087,0.2559505100087734,0.2380494899912266,0.3547195532469388,2148.3116015154915,4063.604241411966
0.9769514237855947,797.5545373976319,797.5163592736322,0.0823744110201463,0.25628217921411717,0.23771782078588283,0.35471955324693893,2147.729905875816,4073.8909380860177
0.9839296482412061,797.832470345537,797.7951336657045,0.08329626197406578,0.2566157062248069,0.23738429377519307,0.3547195532469391,2147.144951937656,4084.1427570068504
0.9909078726968175,798.1114111474641,798.0748696549762,0.08422326447979331,0.25695109707440433,0.2370489029255957,0.3547195532469392,2146.5567291190932,4094.3599970386686
0.9978860971524289,798.3913790345323,798.3555759646503,0.08515543532252881,0.25728835783581905,0.23671164216418095,0.3547195532469394,2145.965226769199,4104.542953438388
1.0048643216080402,798.6723965661845,798.6372623180227,0.08609279139928673,0.2576274946224153,0.2363725053775847,0.3547195532469395,2145.3704341660923,4114.691917985663
1.0118425460636515,798.9544903634558,798.9199396574936,0.08703534972280967,0.25796851358942813,0.2360314864105719,0.3547195532469396,2144.77234051446,4124.80717912352
1.0188207705192631,799.2376920045015,799.2036204166415,0.0879831274265452,0.25831142093576354,0.23568857906423643,0.35471955324693977,2144.170934942396,4134.889022112376
1.0257989949748745,799.5220391166563,799.4883188596114,0.08893614177095084,0.2586562229062802,0.23534377709371979,0.35471955324693993,2143.5662064973985,4144.937729200722
1.0327772194304858,799.8075767054137,799.774051506395,0.08989441015146431,0.2590029257946726,0.2349970742053274,0.35471955324694004,2142.958144141318,4154.953579816484
1.0397554438860972,800.0943587672442,800.0608376683944,0.09085795010857046,0.2593515359471137,0.23464846405288636,0.3547195532469402,2142.346736743965,4164.936850783759
1.0467336683417086,800.3824502397098,800.3487001264674,0.09182677934052318,0.2597020597668572,0.23429794023314285,0.3547195532469404,2141.731973075038,4174.8878165705855
1.0537118927973201,800.6719293481319,800.6376659941302,0.09280091571944435,0.2600545037200628,0.23394549627993727,0.3547195532469405,2141.11384179391,4184.806749574318
1.0606901172529313,800.9628904118969,800.9277678225903,0.09378037731174331,0.2604088743431835,0.23359112565681647,0.35471955324694066,2140.492331436671,4194.693920452254
1.0676683417085429,801.2554471733861,801.2190450227881,0.09476518240409275,0.2607651782523641,0.2332348217476359,0.3547195532469408,2139.8674303996427,4204.549598506198
1.0711574539363484,801.4023657481417,801.3651390281852,0.09525959454561735,0.26094405728146347,0.23305594271853655,0.3547195532469409,2139.5537047067537,4209.465711619551
1.0746465661641542,801.5497367108111,801.5115457175931,0.09575534953667778,0.26112342215547035,0.23287657784452961,0.354719553246941,2139.239126918283,4214.37405213145
1.07813567839196,801.6975815832662,801.658272854352,0.09625244974133947,0.26130327372970713,0.23269672627029286,0.35471955324694104,2138.923695534131,4219.274653535053
1.0816247906197656,801.8459239452908,801.8053290807254,0.09675089754545041,0.261483612867377,0.232516387132623,0.35471955324694115,2138.607409040374,4224.16754933661
1.0851139028475711,801.9947896094147,801.9527240342977,0.09725069535868244,0.2616644404403028,0.2323355595596972,0.3547195532469412,2138.290265907972,4229.05277307655
1.088603015075377,802.1442068039503,802.1004684804395,0.0977518456168494,0.2618457573297654,0.2321542426702346,0.3547195532469413,2137.9722645912966,4233.93035835213
1.0920921273031827,802.2942063629233,802.2485744628314,0.09825435078454083,0.26202756442745695,0.23197243557254307,0.3547195532469414,2137.6534035264613,4238.800338841667
1.0955812395309883,802.4448219210851,802.397055474153,0.09875821335811479,0.2622098626365634,0.23179013736343665,0.3547195532469415,2137.3336811294175,4243.662748330433
1.0990703517587939,802.5960901115805,802.5459266490975,0.0992634358690976,0.26239265287299457,0.23160734712700545,0.35471955324694154,2137.013095793806,4248.517620738189
1.1025594639865997,802.7480507631509,802.6952049818459,0.09977002088804376,0.26257593606678087,0.23142406393321913,0.35471955324694165,2136.691645888498,4253.364990148401
1.1060485762144054,802.9007470929477,802.8449095699932,0.10027797102891485,0.2627597131636574,0.2312402868363426,0.3547195532469417,2136.369329754824,4258.204890839048
1.109537688442211,803.0542258901389,802.9950618866171,0.10078728895404009,0.2629439851268587,0.23105601487314129,0.3547195532469418,2136.0461457034207,4263.037357314969
1.1130268006700168,803.2085376845287,803.1456860816652,0.10129797737972572,0.26312875293914834,0.2308712470608517,0.35471955324694193,2135.7220920106765,4267.862424341615
1.1165159128978226,803.3637368933743,803.2968093130579,0.10181003908258204,0.2633140176051078,0.23068598239489216,0.354719553246942,2135.3971669147127,4272.680126979987
1.1200050251256282,803.5198819385515,803.4484621067996,0.10232347690663905,0.2634997801537115,0.2305002198462885,0.3547195532469421,2135.07136861087,4277.490500622531
1.1234941373534337,803.6770353252061,803.600678743895,0.10283829377131821,0.2636860416412102,0.23031395835878984,0.35471955324694215,2134.744695246651,4282.2935810296385
1.1269832495812395,803.8352636721163,803.7534976699374,0.10335449268032253,0.26387280315434797,0.23012719684565203,0.35471955324694227,2134.4171449160776,4287.089404366329
1.1304723618090453,803.9946376832721,803.906961920839,0.10387207673149716,0.26406006581392977,0.22993993418607023,0.3547195532469424,2134.0887156534336,4291.87800723859
1.1339614740368509,804.1552320497372,804.0611195552947,0.10439104912769631,0.26424783077875286,0.2297521692212472,0.35471955324694243,2133.7594054263714,4296.659426728793
1.1374505862646567,804.3171252708238,804.2160240812784,0.10491141318866921,0.26443609924990724,0.22956390075009275,0.35471955324694254,2133.4292121283675,4301.433700429442
1.1409396984924625,804.4803993840957,804.3717348602438,0.10543317236394709,0.2646248724754385,0.2293751275245616,0.35471955324694265,2133.0981335705455,4306.200866474477
1.144428810720268,804.6451395948395,804.5283174689474,0.1059563302466744,0.2648141517553512,0.22918584824464874,0.3547195532469427,2132.7661674729034,4310.960963567231
1.1479179229480736,804.811433797514,804.6858439951847,0.10648089058827986,0.265003938446918,0.22899606155308197,0.3547195532469428,2132.4333114549972,4315.714031004098
1.1514070351758794,804.9793719843688,804.8443932405885,0.10700685731382631,0.26519423397023223,0.2288057660297678,0.35471955324694293,2132.099563026207,4320.46010869289
1.1548961474036852,805.1490455399402,805.0040508014354,0.10753423453781671,0.26538503981392686,0.22861496018607308,0.35471955324694304,2131.7649195757035,4325.199237164886
1.1583852596314907,805.3205464244476,805.1649089975858,0.10806302658016693,0.26557635754095393,0.22842364245904603,0.3547195532469431,2131.429378362316,4329.93145757955
1.1618743718592965,805.4939662540781,805.3270666207799,0.10859323798198724,0.26576818879429365,0.22823181120570638,0.3547195532469432,2131.092936504516,4334.656811721009
1.1653634840871023,805.6693952915862,805.4906284768758,0.10912487352075068,0.26596053530244257,0.22803946469755743,0.3547195532469433,2130.75559097079,4339.375341985437
1.168852596314908,805.8469213661903,805.6557047025926,0.10965793822437217,0.26615339888450773,0.22784660111549226,0.35471955324694343,2130.4173385707118,4344.08709135872
1.1723417085427137,806.0266287471036,805.8224098458899,0.1101924373836802,0.2663467814547185,0.2276532185452815,0.35471955324694354,2130.078175947024,4348.79210338392
1.1758308207705195,806.2085969997108,805.990861710102,0.11072837656274395,0.2665406850261631,0.22745931497383687,0.35471955324694365,2129.7380995690864,4353.490422118385
1.179319932998325,806.392899857006,806.1611799747586,0.11126576160652481,0.2667351117135572,0.2272648882864428,0.3547195532469437,2129.397105728019,4358.182092080564
1.1828090452261306,806.5796041410201,806.3334846198075,0.11180459864535523,0.2669300637348638,0.2270699362651362,0.3547195532469438,2129.055190533866,4362.867158186988
1.1862981574539364,806.7687687693121,806.5078941936114,0.1123448940958138,0.2671255434116104,0.22687445658838962,0.35471955324694393,2128.7123499150307,4367.545665680113
1.1897872696817422,806.9604438799703,806.6845239773505,0.11288665465766057,0.26732155316777984,0.22667844683222016,0.35471955324694404,2128.3685796202294,4372.217660048114
1.1932763819095478,807.1546701050191,806.8634841081209,0.1134298873066178,0.26751809552719863,0.2264819044728014,0.35471955324694415,2128.0238752230666,4376.883186937926
1.1967654941373533,807.3514780167664,807.0448777290025,0.113974599282921,0.26771517310939436,0.22628482689060564,0.35471955324694426,2127.678232129303,4381.542292063135
1.2002546063651591,807.5508877648443,807.2287992360012,0.11452079807571645,0.26791278862395107,0.22608721137604892,0.3547195532469444,2127.331645586755,4386.195021108447
1.203743718592965,807.7529089139363,807.4153326887317,0.11506849140353302,0.2681109448634437,0.2258890551365563,0.3547195532469445,2126.9841106976837,4390.841419632589
1.2072328308207705,807.9575404839877,807.6045504442434,0.11561768719120004,0.26830964469508695,0.22569035530491305,0.3547195532469446,2126.6356224334468,4395.481532971552
1.210721943048576,808.1647711866693,807.7965120621515,0.11616839354370558,0.26850889105127723,0.22549110894872273,0.3547195532469447,2126.286175651081,4400.115406143984
1.2142110552763818,808.3745798444954,807.9912635152208,0.11672061871758929,0.26870868691924266,0.22529131308075737,0.3547195532469448,2125.935765111459,4404.743083760494
1.2211892797319932,808.8018004701081,808.3892493375084,0.11782965913091759,0.26910993934754335,0.2248900606524567,0.35471955324694504,2125.2320314388985,4413.980028225891
1.224678391959799,809.0191265739182,808.5925052488494,0.11838649136135358,0.2693114020552439,0.22468859794475607,0.35471955324694515,2124.878697524449,4418.58938152046
1.2281675041876048,809.2388605729952,808.79859452929,0.11894487633405099,0.2695134265473443,0.2244865734526557,0.35471955324694526,2124.5243783284873,4423.192712023767
1.2316566164154104,809.460942911089,809.0074945243013,0.11950482259502135,0.2697160159158038,0.22428398408419623,0.35471955324694543,2124.1690684282044,4427.790061177184
1.2351457286432161,809.6853091353654,809.2191706909679,0.1200663386558635,0.26991917324013115,0.22408082675986882,0.35471955324694554,2123.8127624226263,4432.381469621324
1.238634840871022,809.9118908798889,809.4335777012567,0.12062943296604188,0.27012290157735497,0.22387709842264503,0.35471955324694565,2123.455454950205,4436.96697716195
1.2421239530988275,810.140616823913,809.6506606652993,0.12119411388727527,0.2703272039527571,0.22367279604724288,0.35471955324694576,2123.097140705071,4441.546622745036
1.245613065326633,810.3714136059737,809.8703564286934,0.12176038967025599,0.27053208335145007,0.22346791664854995,0.3547195532469459,2122.737814451808,4446.120444440566
1.2491021775544389,810.6042066786479,810.092594901139,0.12232826843381744,0.2707375427108395,0.22326245728916053,0.35471955324694604,2122.377471038667,4450.688479434506
1.2525912897822447,810.8389210926782,810.3173003784756,0.12289775814657494,0.27094358491398196,0.22305641508601806,0.35471955324694615,2122.0161054092205,4455.2507640282765
1.2560804020100502,811.0754822028331,810.5443928258578,0.12346886661097908,0.2711502127838154,0.22284978721618462,0.35471955324694626,2121.653712612479,4459.807333644953
1.2595695142378558,811.3138162911725,810.7737890958978,0.12404160144964732,0.2713574290782138,0.2226425709217862,0.35471955324694643,2121.290287811565,4464.35822284143
1.2630586264656616,811.5538511063015,811.0054040617105,0.12461597009377776,0.2715652364857955,0.2224347635142045,0.35471955324694654,2120.9258262910653,4468.903465325686
1.2665477386934674,811.7955163196153,811.2391516506133,0.12519197977339902,0.2717736376223953,0.22222636237760468,0.35471955324694665,2120.5603234632167,4473.443093978388
1.2700368509212732,812.0387439015028,811.4749457695226,0.12576963750917117,0.27198263502809816,0.22201736497190186,0.3547195532469468,2120.193774873109,4477.977140878036
1.273525963149079,812.2834684219704,811.7127011177078,0.12634895010542113,0.27219223116471936,0.22180776883528058,0.35471955324694693,2119.8261762031057,4482.505637328904
1.2770150753768845,812.5296272812204,811.9523338864578,0.12692992414407592,0.2724024284136098,0.2215975715863902,0.3547195532469471,2119.457523276692,4487.028613891113
1.28050418760469,812.7771608764225,812.1937623483592,0.12751256597913946,0.27261322907365715,0.22138677092634287,0.3547195532469472,2119.08781206198,4491.546100412211
1.2839932998324959,813.026012711286,812.4369073413022,0.12809688173134695,0.2728246353593523,0.2211753646406477,0.35471955324694737,2118.7170386751004,4496.058126059684
1.2874824120603017,813.2761294551609,812.6816926541114,0.1286828772826222,0.2730366493987838,0.22096335060121616,0.3547195532469475,2118.345199383721,4500.564719353944
1.2909715242881072,813.5274609582877,812.9280453218753,0.12927055826995387,0.2732492732314224,0.22075072676857757,0.35471955324694765,2117.9722906109314,4505.065908201347
1.2944606365159128,813.7799602295528,813.1758958397478,0.12985993007829727,0.2734625088055527,0.22053749119444732,0.3547195532469478,2117.5983089397455,4509.561719926869
1.2979497487437186,814.0335833827278,813.425178304278,0.13045099783209602,0.27367635797520573,0.22032364202479426,0.3547195532469479,2117.2232511184848,4514.05218130617
1.3014388609715244,814.2882895567022,813.6758304912855,0.13104376638500262,0.27389082249644014,0.22010917750355988,0.3547195532469481,2116.847114067299,4518.537318596771
1.30492797319933,814.5440408147117,813.9277938790054,0.1316382403073565,0.2741059040228112,0.21989409597718879,0.35471955324694826,2116.4698948861114,4523.017157568153
1.3084170854271358,814.8008020270221,814.1810136247593,0.13223442387095008,0.2743216040998598,0.21967839590014027,0.35471955324694837,2116.091590864288,4527.491723530632
1.3119061976549415,815.0585407409974,814.4354385028025,0.13283232103057918,0.2745379241584365,0.21946207584156344,0.35471955324694854,2115.712199492339,4531.961041362883
1.315395309882747,815.317227041945,814.6910208103305,0.13343193540183126,0.2747548655066664,0.2192451344933336,0.3547195532469487,2115.331718476021,4536.425135538036
1.318884422110553,815.5768334076344,814.9477162478993,0.13403327023451153,0.27497242932033356,0.21902757067966644,0.35471955324694887,2114.9501457531924,4540.884030148293
1.3223735343383587,815.8373345589025,815.2054837797972,0.13463632838104056,0.2751906166314479,0.2188093833685521,0.35471955324694904,2114.5674795138707,4545.337748928028
1.3258626465661643,816.0987073083248,815.4642854791805,0.13524111225908264,0.2754094283147238,0.21859057168527612,0.3547195532469492,2114.1837182239437,4549.786315275378
1.3293517587939698,816.3609304085228,815.7240863621039,0.13584762380756965,0.2756288650716698,0.21837113492833016,0.35471955324694937,2113.7988606530766,4554.229752272302
1.3328408710217756,816.6239844013134,815.984854213926,0.13645586443517793,0.27584892741194694,0.21815107258805305,0.35471955324694954,2113.412905907404,4558.668082703155
1.3363299832495814,816.8878514685683,816.2465594109656,0.13706583496019006,0.276069615631611,0.21793038436838902,0.3547195532469497,2113.0258534676896,4563.10132907179
1.339819095477387,817.1525152853588,816.5091747397316,0.1376775355405265,0.27629092978779785,0.21770907021220218,0.35471955324694987,2112.6377032337273,4567.529513617212
1.3433082077051928,817.417960875682,816.772675215547,0.13829096559256324,0.2765128696693515,0.2174871303306485,0.35471955324695004,2112.2484555758506,4571.9526583278375
1.3467973199329986,817.6841744708283,817.0370379019263,0.13890612369715558,0.27673543476282336,0.21726456523717666,0.3547195532469502,2111.858111394568,4576.370784954393
1.3502864321608041,817.9511433702286,817.3022417316594,0.1395230074910674,0.2769586242131911,0.21704137578680885,0.35471955324695037,2111.466672189454,4580.783915021462
1.3537755443886097,818.21885580441,817.5682673301833,0.14014161354174795,0.277182436778553,0.21681756322144702,0.35471955324695054,2111.0741401386085,4585.192069837764
1.3572646566164153,818.4873007995111,817.835096841494,0.14076193720310823,0.27740687077794723,0.21659312922205273,0.35471955324695076,2110.6805181901764,4589.595270505144
1.360753768844221,818.7564680426274,818.1027137565457,0.14138397244962225,0.27763192403132986,0.21636807596867016,0.3547195532469509,2110.2858101676097,4593.993537926325
1.3642428810720268,819.0263477470849,818.3711027438196,0.14200771168570162,0.2778575937906059,0.21614240620939415,0.3547195532469511,2109.8900208906357,4598.3868928114325
1.3677319932998326,819.2969305165819,818.640249481489,0.1426331455268782,0.2780838766604612,0.21591612333953883,0.3547195532469513,2109.4931563141017,4602.775355683295
1.3712211055276384,819.5682072069667,818.9101404903781,0.1432602625488558,0.27831076850756886,0.2156892314924311,0.3547195532469515,2109.095223687213,4607.158946881519
1.374710217755444,819.8401687842539,819.1807629666908,0.1438890489999738,0.2785382643565582,0.2154617356434418,0.35471955324695165,2108.6962317359885,4611.537686565327
1.3781993299832496,820.112806177311,819.4521046132749,0.14451948847204324,0.2787663582709226,0.21523364172907739,0.35471955324695187,2108.296190872126,4615.911594715124
1.3816884422110554,820.3861101234596,819.7241534679819,0.1451515615238864,0.2789950432168159,0.21500495678318413,0.35471955324695204,2107.895113431886,4620.280691132761
1.3886666666666667,820.9346786761182,820.2703255696815,0.14642051278958362,0.27945415162317955,0.21454584837682045,0.3547195532469525,2107.089909470176,4629.004527078432
1.395644891122278,821.485789999222,820.8191833955658,0.14769566868518477,0.2799155048736316,0.2140844951263684,0.35471955324695287,2106.280768404878,4637.709349167482
1.4026231155778894,822.0393447522387,821.3706243059605,0.14897671199448068,0.280378988198888,0.21362101180111198,0.3547195532469533,2105.467891523274,4646.395309079587
1.4130904522613066,822.8739835819665,822.2023680988838,0.15090834847697607,0.28107785707677607,0.21292214292322398,0.3547195532469539,2104.24218539071,4659.389205808756
1.4183241206030153,823.2930939730885,822.6201699303444,0.15187815344612726,0.2814287339196514,0.21257126608034863,0.35471955324695426,2103.626802574713,4665.870516167694
1.4235577889447237,823.7132827509614,823.0391579777576,0.15285017534001538,0.2817804128491084,0.2122195871508916,0.3547195532469546,2103.01001302496,4672.341479560934
1.4270469011725293,823.993954496482,823.3190969688611,0.15349921595375274,0.2820152366834773,0.21198476331652275,0.3547195532469548,2102.5981689395176,4676.649734929242
1.430536013400335,824.2750193435035,823.5994899783088,0.15414890796902522,0.2822502961958652,0.21174970380413474,0.3547195532469551,2102.1859115118837,4680.953433236774
1.4340251256281409,824.556434228344,823.8803007695856,0.1547990836735297,0.28248553070771815,0.21151446929228185,0.3547195532469553,2101.773347162702,4685.252590406312
1.4375142378559465,824.838150353042,824.1614883944877,0.15544955282584574,0.28272087138941443,0.21127912861058556,0.35471955324695553,2101.3605966083082,4689.547221899495
1.441003350083752,825.1201125178746,824.4430066005468,0.15610010020605072,0.28295624037407424,0.21104375962592578,0.35471955324695575,2100.947796414966,4693.837342669067
1.4444924623115578,825.4022584195588,824.7248032014378,0.1567504830603325,0.2831915498330167,0.21080845016698338,0.35471955324695603,2100.5351006203737,4698.122967105777
1.4479815745393636,825.6845179259628,825.0068194168132,0.15740042848982747,0.28342670103103745,0.2105732989689625,0.35471955324695625,2100.122682390555,4702.404108979729
1.4514706867671692,825.9668123430429,825.2889891916419,0.15804963085409796,0.2836615833869835,0.21033841661301647,0.35471955324695653,2099.710735667467,4706.680781376105
1.454959798994975,826.2490536955463,825.5712385095868,0.15869774928336108,0.2838960735736735,0.21010392642632647,0.35471955324695675,2099.2994767475952,4710.95299662533
1.4584489112227808,826.531144049693,825.853484720174,0.15934440542027656,0.2841300347008736,0.20986996529912638,0.35471955324695703,2098.8891457148884,4715.220766227962
1.4619380234505863,826.8129749133439,826.1356359054241,0.15998918154066952,0.28436331563537215,0.20963668436462787,0.3547195532469573,2098.4800076332367,4719.484100774836
1.4654271356783921,827.0944267566546,826.4175903179602,0.16063161923104344,0.2845957505225018,0.20940424947749817,0.35471955324695753,2098.0723533856503,4723.743009863349
1.468916247906198,827.37536870327,826.6992359289967,0.16127121882619402,0.28482715858266794,0.20917284141733203,0.3547195532469578,2097.666500031116,4727.997502011079
1.4724053601340035,827.6556584477956,826.9804501304321,0.16190743982866723,0.2850573442631086,0.20894265573689141,0.3547195532469581,2097.262790538432,4732.247584568452
1.4758944723618093,827.9351424584468,827.2610996396996,0.16253970253824793,0.28528609782744596,0.20871390217255403,0.35471955324695836,2096.86159275223,4736.493263632535
1.479383584589615,828.2136565230599,827.5410406580892,0.1631673911085591,0.28551319646156875,0.20848680353843127,0.35471955324695864,2096.463297453429,4740.7345439645605
1.4828726968174206,828.4910266906862,827.8201193318284,0.1637898582137383,0.2857384059620419,0.20826159403795808,0.3547195532469589,2096.068315398031,4744.971428914205
1.4863618090452262,828.7670706485818,828.0981725592546,0.16440643144673725,0.2859614830510214,0.20803851694897862,0.3547195532469592,2095.6770732571263,4749.203920353961
1.4915954773869347,829.178235620547,828.5129534388861,0.16531873017033602,0.28629155405094175,0.20770844594905827,0.35471955324695964,2095.098180618486,4755.544420006852
1.4968291457286433,829.5853383107243,828.9244374580173,0.16621387057136938,0.28661541714489924,0.20738458285510078,0.35471955324696003,2094.53017567087,4761.875029215301
1.5020628140703518,829.9877262365166,829.3320047758066,0.16708956118339907,0.28693224327701666,0.20706775672298333,0.3547195532469605,2093.97451244794,4768.195734574543
1.5072964824120603,830.3847710226001,829.7350378241606,0.1679436600934972,0.28724125750009355,0.20675874249990642,0.3547195532469609,2093.4325500852437,4774.5065149494185
1.512530150753769,830.7758935870331,830.1329427074592,0.16877427108714102,0.2875417737609684,0.2064582262390316,0.3547195532469614,2092.905491812162,4780.807341997347
1.5177638190954774,831.1605877213099,830.525170961425,0.1695798283796797,0.287833225556486,0.20616677444351397,0.35471955324696186,2092.394331186163,4787.098180985216
1.5229974874371859,831.5384394926738,830.9112395645702,0.1703591599099223,0.2881151888332095,0.20588481116679053,0.35471955324696236,2091.899811930301,4793.378991860636
1.5282311557788946,831.909140476992,831.2907472693117,0.17111152234941582,0.28838739465382757,0.20561260534617246,0.3547195532469628,2091.422405718338,4799.649730510447
1.5317202680067004,832.1521999829436,831.5399512213809,0.17159794404010711,0.2885633827262387,0.2054366172737613,0.35471955324696314,2091.1137503089503,4803.824604215648
1.535209380234506,832.3919607532191,831.7860331337549,0.17207224405774083,0.288734985159776,0.205265014840224,0.35471955324696347,2090.812786620618,4807.994966344807
1.5386984924623117,832.6284130507561,832.0289456145391,0.17253450887671032,0.2889022332410002,0.20509776675899982,0.3547195532469638,2090.5194597816326,4812.160802560146
1.5421876046901175,832.8615669182121,832.2686605636094,0.17298489331648798,0.28906518298382067,0.20493481701617935,0.35471955324696414,2090.2336715524034,4816.322098604079
1.545676716917923,833.0914505298521,832.5051684028184,0.17342361232620251,0.28922391215714355,0.20477608784285642,0.35471955324696447,2089.9552855384964,4820.478840451258
1.5491658291457286,833.3181083062141,832.7384769761871,0.17385093224871315,0.2893785171242014,0.20462148287579862,0.3547195532469648,2089.6841327339525,4824.631014445189
1.5526549413735342,833.5415988937394,832.9686101967006,0.17426716198443748,0.28952910964561257,0.2044708903543874,0.3547195532469652,2089.420017128218,4828.778607418078
1.55614405360134,833.761993099677,833.195606515731,0.17467264440158106,0.28967581377159074,0.20432418622840923,0.3547195532469655,2089.1627211567225,4832.921606793341
1.5596331658291458,833.9793718572479,833.4195172860497,0.17506774825723934,0.2898187629189873,0.20418123708101274,0.35471955324696586,2088.9120108272846,4837.060000670889
1.5631222780569516,834.1938242794836,833.6404050813069,0.17545286081283124,0.2899580971995445,0.20404190280045548,0.35471955324696625,2088.667640405938,4841.193777895827
1.5666113902847574,834.4054458439675,833.8583420250491,0.17582838125390454,0.29009396103917207,0.20390603896082796,0.3547195532469666,2088.429356592344,4845.322928111613
1.570100502512563,834.6143367360797,834.0734081719203,0.1761947149625979,0.29022650110571496,0.2037734988942851,0.35471955324696697,2088.1969021541618,4849.447441798951
1.5735896147403685,834.8206003659127,834.2856899735235,0.17655226864251078,0.2903558645451247,0.2036441354548753,0.3547195532469673,2087.970019020528,4853.567310301923
1.577078726968174,835.0243420639993,834.4952788520316,0.1769014462600502,0.2904821975130326,0.20351780248696738,0.3547195532469677,2087.748450857444,4857.68252584281
1.5805678391959799,835.2256679533814,834.7022698964186,0.17724264574244158,0.2906056439800854,0.2033943560199146,0.3547195532469681,2087.531945163032,4861.793081527199
1.5840569514237857,835.4246839900305,834.9067606892586,0.17757625635823762,0.2907263447842094,0.2032736552157906,0.3547195532469684,2087.320254929711,4865.898971340753
1.5875460636515912,835.6214951600197,835.1088502664421,0.17790265669974922,0.29084443690065115,0.20315556309934887,0.3547195532469688,2087.1131399244364,4870.000190139067
1.591035175879397,835.8162048196563,835.3086382078202,0.17822221318588974,0.2909600529003043,0.20303994709969567,0.3547195532469692,2086.910367638702,4874.096733631819
1.5945242881072028,836.0089141637754,835.5062238535444,0.17853527900702,0.2910733205679532,0.20292667943204673,0.3547195532469696,2086.7117139580882,4878.188598362354
1.5980134003350084,836.1997218072399,835.7017056386237,0.17884219343911611,0.2911843626541376,0.2028156373458624,0.35471955324696997,2086.5169635974476,4882.275781683697
1.6015025125628142,836.3887234651211,835.8951805367489,0.1791432814615766,0.29129329673687454,0.20270670326312545,0.35471955324697035,2086.3259103434243,4886.3582817318365
1.60499162479062,836.5760117178562,836.0867436036102,0.1794388536206337,0.2914002351722409,0.20259976482775907,0.35471955324697074,2086.1383571411243,4890.43609739706
1.6084807370184255,836.7616758487703,836.2764876096342,0.17972920608813067,0.2915052851156386,0.2024947148843614,0.35471955324697113,2085.95411605682,4894.509228293936
1.611969849246231,836.9458017425383,836.4645027521277,0.1800146208727551,0.29160854859821933,0.20239145140178066,0.3547195532469716,2085.773008143914,4898.577674730509
1.6154589614740367,837.1284718343693,836.6508764371448,0.1802953661474858,0.29171012264535545,0.20228987735464454,0.35471955324697196,2085.594863235157,4902.641437677137
1.6189480737018425,837.3097651009405,836.8356931219424,0.18057169666327202,0.2918100994263094,0.2021899005736906,0.35471955324697235,2085.4195196801543,4906.700518735326
1.6224371859296483,837.4897570852341,837.0190342095312,0.18084385422421148,0.2919085664261541,0.2020914335738459,0.3547195532469728,2085.2468240438425,4910.754920106879
1.625926298157454,837.6685199485075,837.2009779875547,0.18111206820416428,0.2920056066326844,0.2019943933673156,0.3547195532469732,2085.0766307786776,4914.8046445635755
1.6294154103852598,837.8461225435785,837.3815996044658,0.18137655608860956,0.29210129873246177,0.2018987012675382,0.35471955324697363,2084.908801880802,4918.84969541757
1.6329045226130654,838.0226305045063,837.5609710767267,0.181637524029005,0.2921957173113824,0.2018042826886177,0.3547195532469741,2084.743206538281,4922.8900764926475
1.636393634840871,838.1981063485231,837.7391613214832,0.18189516739969955,0.2922889330561685,0.2017110669438315,0.35471955324697446,2084.5797207777164,4926.925792096454
1.6398827470686765,838.3726095867023,837.9162362098172,0.1821496713494931,0.2923810129539243,0.2016189870460757,0.3547195532469749,2084.4182271142604,4930.956846993746
1.6433718592964823,838.5461968405144,838.0922586363573,0.18240121134222156,0.29247202048771986,0.20152797951228016,0.35471955324697535,2084.258614208589,4934.983246380733
1.6468609715242881,838.7189219618655,838.2672886015703,0.1826499536819014,0.2925620158265892,0.20143798417341077,0.3547195532469758,2084.100776533676,4939.004995860525
1.6503500837520937,838.8908361547097,838.4413833036133,0.1828960560195037,0.29265105600888214,0.20134894399111786,0.35471955324697624,2083.944614053224,4943.0221014196995
1.6538391959798995,839.0619880966389,838.6145972370733,0.18313966783911867,0.292739195118159,0.201260804881841,0.3547195532469767,2083.790031913172,4947.034569405983
1.6573283082077053,839.2324240592458,838.7869822963661,0.1833809309223941,0.29282648445122544,0.20117351554877458,0.3547195532469771,2083.6369401469874,4951.042406507032
1.6608174204355108,839.4021880262482,838.9585878819098,0.18361997979038971,0.2929129726779957,0.2010870273220043,0.35471955324697757,2083.4852533952926,4955.0456197302865
1.6677956448911224,839.7398651553173,839.2996464053966,0.18409193915495264,0.2930837282598603,0.2009162717401397,0.35471955324697846,2083.1857749516475,4963.038204059143
1.6747738693467338,840.075329881886,839.638122207157,0.18455649225660883,0.29325180424507513,0.2007481957549249,0.3547195532469794,2082.890996099228,4971.01238414646
1.6817520938023451,840.4088629676176,839.9743315685921,0.18501449377433327,0.29341750985773163,0.20058249014226837,0.35471955324698035,2082.600374507595,4978.968225743163
1.6887303182579565,840.7407186359384,840.308560864214,0.1854667170666305,0.29358112490005717,0.20041887509994286,0.3547195532469813,2082.3134194476343,4986.905798120516
1.6957085427135679,841.0711273822888,840.6410695600646,0.18591386328325135,0.2937429030490474,0.20025709695095265,0.3547195532469823,2082.029686009779,4994.8251736460215
1.7026867671691794,841.4002985036893,840.9720929742922,0.1863565693843588,0.2939030747578121,0.20009692524218795,0.3547195532469833,2081.748770015508,5002.7264274060035
1.7096649916247906,841.7284223621366,841.3018447905108,0.18679541518775525,0.29406184980527217,0.19993815019472783,0.3547195532469843,2081.4703035455755,5010.609636869912
1.7166432160804022,842.0556724010748,841.6305193270937,0.1872309295579943,0.2942194195353894,0.1997805804646106,0.3547195532469853,2081.193951012757,5018.474881591781
1.7236214405360135,842.3822069365457,841.9582935735274,0.18766359584265424,0.2943759588240178,0.19962404117598223,0.35471955324698634,2080.9194057122995,5026.322242944632
1.7305996649916249,842.7081707449546,842.2853290094574,0.18809385664991704,0.2945316278074389,0.19946837219256108,0.3547195532469874,2080.646386790342,5034.151803884048
1.7375778894472362,843.0336964690354,842.6117732244567,0.18852211805216929,0.29468657340323046,0.19931342659676954,0.35471955324698845,2080.3746365765533,5041.963648737553
1.7445561139028476,843.3589058621139,842.9377613571702,0.18894875328911281,0.2948409306500574,0.19915906934994265,0.35471955324698956,2080.1039182343457,5049.757863016778
1.751534338358459,843.6839108893699,843.2634173722865,0.18937410603543248,0.2949948238899185,0.1990051761100815,0.3547195532469906,2079.834013687402,5057.534533249773
1.7585125628140703,844.0088147030467,843.5888551929103,0.18979849328953405,0.2951483678132963,0.19885163218670374,0.3547195532469918,2079.5647217866494,5065.2937468311175
1.765490787269682,844.333712506734,843.9141797045985,0.1902222079320194,0.29530166838481686,0.19869833161518313,0.3547195532469929,2079.2958566867937,5073.035591887797
1.772469011725293,844.6586923222992,844.2394876459892,0.1906455209966418,0.2954548236648848,0.1985451763351152,0.35471955324699406,2079.0272464053023,5080.760157159016
1.7794472361809046,844.9838356715368,844.5648683995365,0.19106868369097527,0.29560792454076434,0.19839207545923565,0.3547195532469952,2078.7587315402034,5088.467531888386
1.786425460636516,845.3092181835857,844.8904046946908,0.1914919292009529,0.2957610553794639,0.19823894462053612,0.3547195532469964,2078.49016412503,5096.157805727107
1.7934036850921273,845.6349101404026,845.2161732360844,0.19191547432033812,0.2959142946172812,0.19808570538271886,0.3547195532469976,2078.221406594846,5103.831068646956
1.8003819095477387,845.9609769840486,845.5422452758798,0.1923395209983179,0.29606771531972453,0.19793228468027543,0.35471955324699883,2077.952330804239,5111.487410862149
1.8038710217755445,846.1241702474575,845.7054160220447,0.19255179190017221,0.29614451523954927,0.1978554847604507,0.35471955324699944,2077.817635819688,5115.3092649464015
1.80736013400335,846.2874798735207,845.8686871892085,0.19276425818109413,0.2962213858478037,0.19777861415219627,0.35471955324700005,2077.682816858745,5119.126922759798
1.8108492462311556,846.45091299938,846.0320664460731,0.1929769420510386,0.29629833518008175,0.19770166481991824,0.35471955324700066,2077.5478598282425,5122.940395618183
1.8143383584589614,846.6144767171702,846.1955613193963,0.19318986582530778,0.29637537131009195,0.197624628689908,0.35471955324700133,2077.412750568164,5126.749694842153
1.8166644332774986,846.7235953272683,846.3046258493351,0.19333195978492093,0.29642678111054294,0.1975732188894571,0.3547195532470017,2077.3225858610485,5129.286914565039
1.8189905080960358,846.8327775148372,846.4137474119709,0.193474178426343,0.29647823602105294,0.19752176397894708,0.35471955324700216,2077.232342037981,5131.822287730376
1.821316582914573,846.9420258567142,846.5229284558233,0.19361653066749876,0.29652973926814014,0.19747026073185986,0.3547195532470026,2077.1420134401574,5134.355817698206
1.8248056951423788,847.106029349477,846.6868176700111,0.19383033491581494,0.29660709395493623,0.1973929060450638,0.35471955324700327,2077.0063454815618,5138.152664015871
1.8282948073701843,847.2702035394244,846.850858887786,0.19404452287111476,0.2966845874674749,0.19731541253252516,0.3547195532470039,2076.8704340444406,5141.945382102218
1.83178391959799,847.4345738292395,847.0150705852174,0.19425919884746443,0.2967622575467364,0.19723774245326361,0.35471955324700455,2076.7342129370477,5145.733983441486
1.8352730318257955,847.5991884272582,847.1794855251139,0.19447456750832626,0.296840178240258,0.19715982175974203,0.3547195532470052,2076.597552291645,5149.5184797252205
1.8387621440536013,847.7641395762724,847.3441645948161,0.19469102572264552,0.29691849313579893,0.19708150686420106,0.3547195532470059,2076.460200277879,5153.298883085352
1.842251256281407,847.9295869652733,847.5092137657892,0.1949092589811779,0.2969974502449079,0.1970025497550921,0.35471955324700655,2076.321721922486,5157.075206497016
1.8457403685092126,848.0957376667986,847.6747788360327,0.19513013220455105,0.29707736249712097,0.19692263750287903,0.3547195532470072,2076.181568396261,5160.847464239985
1.8492294807370184,848.2625249860691,847.840873640962,0.1953531933983116,0.2971580663601901,0.19684193363980995,0.35471955324700793,2076.0400265090543,5164.6156715532725
1.8509740368509213,848.3453674429176,847.923706843351,0.19546183687557697,0.2971973737276652,0.19680262627233486,0.35471955324700827,2075.9710875665805,5166.4982595209785
1.8527185929648242,848.4256145837968,848.0051728081437,0.19555827121953873,0.2972322638130226,0.1967677361869774,0.3547195532470086,2075.909895842436,5168.379833245744
1.8535908710217757,848.4640252387766,848.044953117743,0.19559859054758083,0.297246851404322,0.196753148595678,0.35471955324700877,2075.884311500822,5169.320236181914
1.8544631490787271,848.5013591596337,848.084087994515,0.1956340766315638,0.2972596903209185,0.1967403096790815,0.35471955324700893,2075.861794059703,5170.260380618152
1.85620770519263,848.5740478940838,848.1609749003949,0.19569670443706885,0.297282349151684,0.19671765084831602,0.35471955324700927,2075.822054033061,5172.13988862915
1.857952261306533,848.6455633915193,848.2367220668591,0.19575525901103497,0.2973035342813774,0.19669646571862257,0.35471955324700966,2075.7848986463982,5174.018351382445
1.8596968174204358,848.7166062504951,848.3117048134313,0.19581300232354554,0.2973244258955009,0.1966755741044991,0.35471955324701,2075.7482580398964,5175.895767494573
1.8631859296482414,848.8579120381734,848.4598710300189,0.19592859663102327,0.2973662480834167,0.19663375191658328,0.3547195532470107,2075.67490849776,5179.647460287075
1.8666750418760472,848.9984528213713,848.6060556862111,0.19604485315278367,0.29740830986141936,0.19659169013858063,0.3547195532470114,2075.6011387522813,5183.394970628323
1.870164154103853,849.1384018007412,848.7506351616042,0.196161779327977,0.2974506139210042,0.19654938607899575,0.3547195532470121,2075.526944082999,5187.138304024577
1.8736532663316585,849.2778954506086,848.8939183544871,0.19627934624855212,0.2974931498031966,0.19650685019680345,0.3547195532470128,2075.4523428333114,5190.877467032197
1.877142378559464,849.4170493907459,849.036163019842,0.19639754046981112,0.29753591264368506,0.19646408735631488,0.35471955324701354,2075.377343534456,5194.612467072045
1.8806314907872697,849.5559613400842,849.1775843527888,0.19651635804217663,0.29757890101350704,0.1964210989864929,0.35471955324701426,2075.3019486926087,5198.343312288592
1.8841206030150754,849.6947135744783,849.3183619954727,0.19663579992873545,0.2976221152611087,0.19637788473889134,0.354719553247015,2075.226157696649,5202.07001142819
1.8876097152428812,849.8333752355112,849.4586459251176,0.19675586965620603,0.2976655566624618,0.19633444333753824,0.3547195532470157,2075.149968308723,5205.792573735034
1.8910988274706868,849.9720043947277,849.5985613898978,0.19687657214000348,0.29770922699597063,0.19629077300402936,0.3547195532470165,2075.0733774097903,5209.511008863286
1.8945879396984924,850.1106498419496,849.7382130354481,0.1969979130877696,0.29775312832666834,0.19624687167333166,0.3547195532470172,2074.9963813781064,5213.225326803372
1.898077051926298,850.2493526081289,849.8776883490169,0.1971198986880933,0.2977972628935953,0.19620273710640465,0.354719553247018,2074.9189762867472,5216.935537820379
1.9015661641541037,850.3881472498546,850.0170605312913,0.1972425354416942,0.2978416330487214,0.19615836695127853,0.3547195532470187,2074.841158010726,5220.641652402727
1.9050552763819095,850.527062926985,850.1563908896034,0.19736583006519093,0.2978862412221289,0.19611375877787107,0.3547195532470195,2074.7629222880623,5224.343681219436
1.908544388609715,850.666124303866,850.2957308315302,0.19748978943268908,0.2979310899008792,0.19606891009912078,0.35471955324702026,2074.68426475684,5228.0416350846035
1.9120335008375209,850.8053523016882,850.4351235252498,0.19761442053817888,0.29797618161540806,0.19602381838459196,0.354719553247021,2074.605180979074,5231.7355249278835
1.9155226130653267,850.9447647257804,850.5746052820682,0.19773973046936136,0.29802151893005596,0.19597848106994403,0.35471955324702176,2074.525666457313,5235.425361769968
1.9190117252931325,851.0843767883638,850.7142067075063,0.19786572638880043,0.29806710443624895,0.195932895563751,0.35471955324702253,2074.445716646604,5239.111156702236
1.9225008375209383,851.2242015439405,850.8539536595605,0.19799241551951138,0.29811294074728445,0.19588705925271555,0.35471955324702337,2074.3653269636334,5242.792920869875
1.9259899497487438,851.3642502518211,850.9938680463681,0.1981198051336424,0.29815903049423614,0.19584096950576385,0.35471955324702414,2074.2844927939127,5246.470665457867
1.9294790619765496,851.5045326779642,851.1339684901579,0.19824790254359095,0.2982053763227401,0.19579462367725994,0.3547195532470249,2074.203209497411,5250.144401679385
1.9329681742043554,851.6450573461905,851.2742708798263,0.19837671509465205,0.29825198089033456,0.1957480191096654,0.35471955324702575,2074.121472413225,5253.814140766177
1.936457286432161,851.7858317472986,851.4147888308182,0.19850625015919332,0.29829884686435304,0.195701153135647,0.35471955324702653,2074.0392768632705,5257.4798939606035
1.9399463986599665,851.9268625130916,851.555534067821,0.19863651513185343,0.2983459769201863,0.19565402307981372,0.35471955324702736,2073.956618155333,5261.141672509052
1.943435510887772,852.0681555611928,851.6965167432056,0.1987675174256216,0.29839337373986463,0.19560662626013536,0.35471955324702814,2073.8734915855534,5264.79948765649
1.946924623115578,852.2097162155508,851.8377457019861,0.19889926446862563,0.29844104001089555,0.19555895998910447,0.354719553247029,2073.789892440466,5268.453350641979
1.9504137353433837,852.3515493067192,851.9792287022715,0.19903176370157943,0.29848897842534,0.19551102157466,0.3547195532470298,2073.7058159986177,5272.103272694964
1.9539028475711895,852.4936592553054,852.1209725986805,0.19916502257576119,0.29853719167908127,0.1954628083209187,0.35471955324703064,2073.621257531855,5275.749265032227
1.9573919597989953,852.6360501413686,852.262983494907,0.1992990485512354,0.29858568247118156,0.1954143175288184,0.35471955324703147,2073.5362123064456,5279.391338855388
1.9608810720268008,852.778725762194,852.4052668706518,0.19943384909559397,0.2986344535034264,0.19536554649657362,0.35471955324703236,2073.4506755838843,5283.029505348839
1.9678592964824122,853.0649452626229,852.6906704729456,0.19970580379304587,0.29873284710696607,0.19526715289303392,0.354719553247034,2073.2781086731497,5290.294160988404
1.9748375209380236,853.352344116151,852.9772183586535,0.19998094652565115,0.298832394146243,0.195167605853757,0.35471955324703575,2073.1035188174806,5297.543321025328
1.981815745393635,853.6409465025929,853.2649406459221,0.20025933722657283,0.2989331163051624,0.19506688369483763,0.3547195532470375,2072.9268679867155,5304.777074179426
1.9887939698492463,853.9307751110717,853.5538641292273,0.20054103589649136,0.2990350352920573,0.19496496470794267,0.3547195532470393,2072.748118107852,5311.995508794968
1.9957721943048579,854.22185161594,853.8440133216743,0.2008261026019636,0.2991381728390951,0.19486182716090483,0.3547195532470411,2072.5672310660852,5319.198712827897
2.002750418760469,854.5141970067629,854.1354111763097,0.20111459747780433,0.29924255070313893,0.1947574492968611,0.3547195532470429,2072.3841687032987,5326.386773838599
2.0097286432160804,854.8078318175336,854.4280795855906,0.20140658073278692,0.29934819066781004,0.19465180933218992,0.3547195532470448,2072.198892814444,5333.559778988493
2.016706867671692,855.1027762861848,854.7220397275062,0.20170211265731305,0.2994551145462634,0.19454488545373663,0.3547195532470466,2072.011365142678,5340.717815039267
2.023685092127303,855.3990504660208,855.0173123057991,0.20200125363277638,0.29956334418457436,0.1944366558154256,0.35471955324704857,2071.821547373419,5347.8609683539025
2.0306633165829147,855.696674303863,855.3139177170004,0.20230406414170807,0.29967290146541065,0.19432709853458935,0.35471955324705046,2071.6294011279083,5354.989324898954
2.0376415410385262,855.9956676953584,855.6118761670161,0.20261060477909715,0.29978380831212686,0.19421619168787313,0.35471955324705245,2071.4348879560293,5362.102970247668
2.044619765494138,856.2960505244685,855.9112077528772,0.20292093626421612,0.29989608669304385,0.19410391330695614,0.3547195532470544,2071.2379693288003,5369.201989583692
2.051597989949749,856.5978426920753,856.2119325204708,0.20323511945290554,0.3000097586258929,0.1939902413741071,0.3547195532470564,2071.038606630583,5376.28646770517
2.05857621440536,856.9010641371304,856.5140705057427,0.2035532153503692,0.3001248461824451,0.1938751538175549,0.35471955324705845,2070.8367611509616,5383.356489029126
2.0655544388609717,857.2057348527064,856.817641764538,0.20387528512446745,0.300241371493321,0.19375862850667905,0.3547195532470605,2070.632394076306,5390.412137596014
2.072532663316583,857.5118748984801,857.1226663945941,0.20420139011905322,0.3003593567528153,0.1936406432471847,0.3547195532470626,2070.4254664813125,5397.453497074399
2.0795108877721944,857.8195044109165,857.4291645522185,0.20453159186803546,0.3004788242239856,0.19352117577601438,0.3547195532470647,2070.21593932008,5404.480650765732
2.0864891122278055,858.1286436118054,857.737156465294,0.20486595210956324,0.3005997962437836,0.19340020375621644,0.3547195532470669,2070.003773417106,5411.493681609175
2.093467336683417,858.4393128157003,858.0466624437829,0.20520453280042739,0.3007222952282659,0.1932777047717341,0.35471955324706905,2069.788929458152,5418.492672186467
2.1004455611390287,858.7515324367213,858.3577028885879,0.20554739613110504,0.3008463436780374,0.19315365632196263,0.3547195532470713,2069.5713679806936,5425.477704726816
2.1074237855946403,859.0653229948562,858.6702982992718,0.20589460454085595,0.3009719641837126,0.19302803581628736,0.3547195532470735,2069.3510493643466,5432.448861111817
2.1144020100502514,859.3807051220158,858.9844692810531,0.20624622073328716,0.3010991794315475,0.1929008205684525,0.35471955324707577,2069.1279338209833,5439.406222880384
2.1213802345058625,859.6976995679156,859.3002365513217,0.20660230769211696,0.30122801220914247,0.19277198779085752,0.3547195532470781,2068.9019813847367,5446.349871233693
2.128358458961474,860.0163272058951,859.6176209458697,0.20696292869730434,0.30135848541127847,0.19264151458872156,0.35471955324708043,2068.673151901759,5453.279887040133
2.1353366834170857,860.336609038737,859.9366434249652,0.20732814734153637,0.3014906220458818,0.19250937795411827,0.3547195532470828,2068.441405019766,5460.196350840273
2.142314907872697,860.6585662044788,860.2573250793339,0.2076980275468683,0.30162444524004456,0.19237555475995546,0.3547195532470852,2068.206700177474,5467.099342851838
2.1492931323283084,860.982219982291,860.5796871361263,0.20807263358173406,0.30175997824617934,0.19224002175382068,0.35471955324708765,2067.9689965938073,5473.988942974692
2.1562713567839196,861.3075917984364,860.9037509649131,0.20845203007830235,0.30189724444829835,0.1921027555517016,0.3547195532470901,2067.728253256885,5480.865230795841
2.163249581239531,861.6347032322634,861.2295380837049,0.20883628204990362,0.3020362673683189,0.1919637326316811,0.35471955324709264,2067.484428912963,5487.728285594435
2.1702278056951427,861.9635760223129,861.5570701650466,0.20922545490885913,0.3021770706725134,0.19182292932748662,0.35471955324709514,2067.237482055118,5494.578186346799
2.177206030150754,862.294232072487,861.8863690421722,0.20961961448444932,0.302319678178011,0.19168032182198902,0.35471955324709775,2066.9873709118533,5501.415011731463
2.184184254606365,862.6266934583243,862.2174567152481,0.2100188270411947,0.30246411385941113,0.19153588614058886,0.35471955324710036,2066.7340534354885,5508.238840134216
2.1911624790619766,862.9609824333281,862.5503553576818,0.21042315929721125,0.3026104018554249,0.19138959814457507,0.354719553247103,2066.477487290521,5515.049749653176
2.198140703517588,863.2971214353976,862.8850873225186,0.2108326784428533,0.30275856647561983,0.19124143352438017,0.3547195532471057,2066.2176298417903,5521.847818103873
2.2051189279731993,863.6351330932988,863.2216751488951,0.2112474521593591,0.30290863220716596,0.1910913677928341,0.35471955324710847,2065.9544381426517,5528.633123024346
2.212097152428811,863.9750402332606,863.5601415685969,0.21166754863787754,0.3030606237217197,0.1909393762782803,0.35471955324711124,2065.6878689228965,5535.405741680272
2.219075376884422,864.3168658855926,863.9005095126641,0.21209303659841472,0.3032145658822789,0.1907854341177211,0.354719553247114,2065.417878576737,5542.165751070097
2.2260536013400336,864.6606332913634,864.242802118058,0.2125239853088729,0.3033704837500709,0.19062951624992908,0.3547195532471169,2065.1444231507207,5548.9132279301975
2.233031825795645,865.0063659091801,864.5870427344142,0.21296046460438492,0.30352840259154795,0.19047159740845201,0.3547195532471198,2064.8674583314632,5555.64824874006
2.2400100502512563,865.3540874219759,864.9332549308327,0.21340254490649024,0.3036883478853251,0.19031165211467488,0.35471955324712273,2064.586939433479,5562.370889727479
2.2469882747068675,865.7038217438609,865.2814625027237,0.213850297242445,0.3038503453291665,0.19014965467083356,0.3547195532471257,2064.3028213869297,5569.0812268737745
2.253966499162479,866.0555930270141,865.6316894787021,0.214303793264551,0.30401442084697866,0.18998557915302133,0.3547195532471287,2064.0150587253597,5575.779335919037
2.2609447236180906,866.409425668621,865.9839601275294,0.2147631052695208,0.30418060059581703,0.189819399404183,0.3547195532471318,2063.7236055734056,5582.465292367386
2.2679229480737018,866.7653443178316,866.3382989650871,0.2152283062177853,0.3043489109728711,0.18965108902712882,0.3547195532471349,2063.428415634549,5589.1391714922565
2.2749011725293133,867.1233738827386,866.6947307613749,0.21569946975273996,0.3045193786224282,0.18948062137757177,0.35471955324713805,2063.129442178897,5595.801048341707
2.2818793969849245,867.4835395374167,867.0532805475622,0.21617667022010661,0.3046920304428781,0.18930796955712187,0.3547195532471413,2062.826638030904,5602.450997743741
2.288857621440536,867.8458667289301,867.413973623032,0.21665998268701678,0.3048668935936178,0.18913310640638223,0.35471955324714455,2062.519955557258,5609.089094311663
2.2958358458961476,868.210381184407,867.7768355624772,0.21714948296124734,0.30504399550201067,0.18895600449798933,0.3547195532471478,2062.2093466546758,5615.715412449449
2.302814070351759,868.5771089180844,868.1418922229853,0.217645247610177,0.3052233638702454,0.1887766361297546,0.3547195532471512,2061.894762737874,5622.3300263571355
2.30979229480737,868.9460762383886,868.5091697511542,0.21814735397977236,0.30540502668220465,0.1885949733177953,0.3547195532471546,2061.576154727521,5628.933010036243
2.3167705192629815,869.3173097550178,868.8786945902146,0.21865588021344035,0.3055890122102864,0.1884109877897136,0.35471955324715804,2061.253473038277,5635.524437295207
2.323748743718593,869.690836386013,869.2504934871502,0.21917090527069694,0.30577534902215775,0.18822465097784222,0.3547195532471616,2060.9266675669455,5642.104381754836
2.3307269681742047,870.0666833648487,869.6245934998325,0.21969250894578973,0.30596406598749326,0.18803593401250676,0.35471955324716514,2060.5956876806563,5648.672916853799
2.337705192629816,870.4448782475201,870.0010220041559,0.22022077188616923,0.3061551922846572,0.1878448077153428,0.35471955324716875,2060.260482205145,5655.230115854116
2.3446834170854274,870.8254489196036,870.3798067011612,0.22075577561071294,0.30634875740729767,0.18765124259270233,0.3547195532471724,2059.9209994131907,5661.7760518466885
2.3516616415410385,871.2084236033725,870.7609756241864,0.22129760252806044,0.3065447911709798,0.18745520882902017,0.35471955324717613,2059.57718701298,5668.310797756837
2.35863986599665,871.5938308648421,871.1445571459841,0.22184633595449,0.3067433237196538,0.18725667628034617,0.35471955324717996,2059.2289921367637,5674.834426349871
2.3656180904522612,871.9816831502661,871.5305699130602,0.2224019886184262,0.3069443596584821,0.1870556403415179,0.3547195532471838,2058.8764067078105,5681.347010157954
2.3725963149078724,872.372022741536,871.9190478411068,0.22296471079386726,0.30714795335681505,0.18685204664318497,0.3547195532471877,2058.5193353708282,5687.848621484113
2.379574539363484,872.7648833205149,872.3100239914993,0.22353460300532788,0.3073541411845676,0.18664585881543244,0.3547195532471917,2058.157714338705,5694.339332650935
2.3865527638190955,873.1602953027561,872.7035293433335,0.22411175156950808,0.30756295437124687,0.18643704562875313,0.3547195532471957,2057.7914888397945,5700.819215850495
2.393530988274707,873.5582892914686,873.0995948036448,0.22469624387370868,0.30777442453370496,0.18622557546629503,0.3547195532471998,2057.420603423109,5707.288343146465
2.4005092127303183,873.958896151723,873.4982513645256,0.22528816838558233,0.3079885836796668,0.18601141632033322,0.35471955324720394,2057.0450019521313,5713.746786477915
2.40748743718593,874.362147062628,873.8995302115195,0.22588761466376972,0.30820546421157824,0.18579453578842173,0.35471955324720816,2056.664627598067,5720.194617663815
2.4179547738693468,874.9720500994736,874.5064341615368,0.22680108601778973,0.30853595947087786,0.18546404052912216,0.35471955324721466,2056.084990875169,5729.846623491681
2.4284221105527637,875.5880813155215,875.119416659152,0.2277319962868268,0.3088727641548957,0.18512723584510435,0.35471955324722126,2055.49428841331,5739.475154842821
2.435400335008375,876.0022276142955,875.5315025907548,0.22836244743923914,0.30910086229522077,0.18489913770477923,0.35471955324722576,2055.0942401377697,5745.881253414186
2.4423785594639864,876.4191795816671,875.946371628151,0.22900088492360843,0.3093318499020183,0.18466815009798174,0.3547195532472303,2054.689124192331,5752.277097316562
2.449356783919598,876.8389708043907,876.3640571257362,0.22964740509321654,0.3095657618360452,0.18443423816395482,0.354719553247235,2054.2788794367075,5758.662757760925
2.459824120603015,877.4740558148203,876.9959402747254,0.23063255405268498,0.3099221901568407,0.18407780984315933,0.3547195532472421,2053.6537602012545,5768.222310019271
2.4702914572864323,878.1157226229158,877.6343525351339,0.23163644296499228,0.3102853986197232,0.18371460138027682,0.35471955324724935,2053.0167496625854,5777.759349272991
2.4807587939698497,878.7640903803706,878.2794121811094,0.2326594121387664,0.3106555103488474,0.1833444896511526,0.35471955324725685,2052.3676318802895,5787.274114937646
2.4912261306532666,879.4192806536878,878.9312398802903,0.233701808098993,0.3110326507174551,0.18296734928254488,0.3547195532472645,2051.7061869694135,5796.766846138175
2.5016934673366835,880.0814174766394,879.5899587499736,0.2347639836866039,0.31141694738390663,0.18258305261609334,0.35471955324727233,2051.032191037263,5806.237781754452
2.5121608040201004,880.7506274021863,880.2556944111047,0.23584629815856015,0.311808530327891,0.18219146967210897,0.3547195532472804,2050.345416119901,5815.6871604670205
2.5226281407035174,881.4270395544635,880.9285750414331,0.23694911728832324,0.3122075318867765,0.1817924681132235,0.3547195532472886,2049.645630118389,5825.115220802981
2.5330954773869347,882.1107856811667,881.6087314285728,0.23807281346661074,0.3126140867920642,0.1813859132079358,0.35471955324729704,2048.932596734858,5834.522201182039
2.5400737018425463,882.5707571331287,882.0662768975703,0.2388337295472508,0.3128893873324362,0.1811106126675638,0.3547195532473028,2048.449762871003,5840.7819280566455
2.5470519262981575,883.0340883184931,882.5271555015134,0.23960420667682183,0.3131681470741632,0.18083185292583678,0.35471955324730864,2047.9608621118418,5847.0324626181355
2.554030150753769,883.5008202849722,882.991407993951,0.24038436022378604,0.313450407757722,0.18054959224227804,0.35471955324731463,2047.465821251141,5853.273875488911
2.5610083752093806,883.9709946339128,883.4590756795521,0.2411743069301937,0.3137362116205555,0.18026378837944457,0.3547195532473207,2046.9645662110665,5859.506237300727
2.5679865996649913,884.444653527572,883.9302004214053,0.2419741649249521,0.3140256014018734,0.17997439859812658,0.35471955324732685,2046.457022033764,5865.72961870087
2.574964824120603,884.9218396964598,884.4048246483858,0.24278405373706796,0.3143186203474436,0.1796813796525563,0.35471955324733306,2045.943112872956,5871.944090358343
2.5819430485762145,885.4025964467468,884.882991362589,0.2436040943088536,0.3146153122143701,0.1793846877856299,0.35471955324733945,2045.422761985562,5878.1497229700635
2.5889212730318256,885.8869676677384,885.3647441468298,0.2444344090090912,0.31491572127585526,0.17908427872414473,0.35471955324734594,2044.8958917233454,5884.346587267099
2.595899497487437,886.3749978394129,885.8501271722106,0.2452751216461434,0.31521989232594416,0.1787801076740558,0.35471955324735255,2044.3624235245943,5890.534754020907
2.6063668341708546,887.114002403579,886.5851065050947,0.24655596114195286,0.3156833019111762,0.17831669808882378,0.35471955324736265,2043.549675971382,5899.800851186965
2.6168341708542715,887.8614958784083,887.3285083912044,0.24786090712879377,0.31615543325978823,0.17784456674021176,0.35471955324737303,2042.7216318164749,5909.04777747518
2.6273015075376884,888.6176360938297,888.0804895888701,0.24919039607639587,0.3166364442871608,0.17736355571283918,0.3547195532473837,2041.8780141011237,5918.275772442885
2.637768844221106,889.3825840655661,888.8412100311116,0.2505448720683341,0.3171264956633747,0.1768735043366253,0.3547195532473946,2041.0185410352676,5927.4850760117815
2.6482361809045227,890.1565040551611,889.6108328860652,0.25192478689727205,0.31762575084767014,0.17637424915232988,0.3547195532474059,2040.1429259370996,5936.675928516491
2.6587035175879397,890.9395636305645,890.3895246180447,0.25333060015864073,0.31813437612233986,0.1758656238776601,0.35471955324741744,2039.2508771736211,5945.84857075338
2.669170854271357,891.7319337272198,891.177455049195,0.2547627793425098,0.3186525406259685,0.1753474593740315,0.3547195532474293,2038.3420981023487,5955.0032440297055
2.679638190954774,892.5337887095665,891.9747974216843,0.25622179992338434,0.3191804163859207,0.17481958361407932,0.3547195532474415,2037.4162870143302,5964.140190213032
2.690105527638191,893.3453064328603,892.7817284603743,0.2577081454476353,0.319718178349974,0.17428182165002593,0.354719553247454,2036.4731370786703,5973.259651780983
2.6953391959798996,893.7547453719228,893.1888459238878,0.2584617183999136,0.3199908221358655,0.17400917786413447,0.3547195532474604,2035.9949627444662,5977.812901787612
2.7005728643216083,894.1666683052043,893.5984284359149,0.25922230761839593,0.3202660044170345,0.17373399558296546,0.3547195532474669,2035.5123362886584,5982.361871871365
2.705806532663317,894.5810984740093,894.0104990947068,0.25998997585382017,0.320543747896789,0.17345625210321097,0.3547195532474735,2035.0252178932144,5986.906592535861
2.711040201005025,894.9980593494296,894.4250812280583,0.26076478637673045,0.32082407546650343,0.17317592453349653,0.35471955324748017,2034.5335674102628,5991.447094332287
2.7162738693467334,895.4175746342611,894.842198395296,0.26154680297982963,0.32110701020647026,0.17289298979352974,0.35471955324748694,2034.0373443605988,5995.983407860988
2.721507537688442,895.8396682649079,895.2618743892657,0.2623360899802639,0.32139257538672594,0.172607424613274,0.35471955324749377,2033.5365079322376,6000.515563773066
2.726741206030151,896.2643644132686,895.6841332383159,0.26313271222183415,0.32168079446785175,0.17231920553214822,0.3547195532475007,2033.0310169790082,6005.043592771972
2.7319748743718595,896.6916874886003,896.1089992082784,0.2639367350771292,0.321971691101745,0.172028308898255,0.3547195532475078,2032.520830019201,6009.567525615115
2.737208542713568,897.121662139353,896.5364968044405,0.2647482244495734,0.32226528913236,0.17173471086763997,0.3547195532475149,2032.0059052342692,6014.087393115471
2.7424422110552764,897.5543132549664,896.9666507735068,0.2655672467753796,0.3225616125964149,0.17143838740358505,0.3547195532475222,2031.4862004675886,6018.60322614319
2.7476758793969847,897.9896762402951,897.399484626838,0.26639391471804696,0.3228606857230081,0.1711393142769919,0.35471956978024843,2030.96164422934,6023.115055625463
2.7529095477386933,898.4282405845629,897.8350566887798,0.2672301699574013,0.32316253271296397,0.17083746728703603,0.3547202811474432,2030.4310044404592,6027.622913999475
2.758143216080402,898.8705294348846,898.2736863358699,0.2680775971571274,0.32346717761634675,0.17053282238365328,0.3547222366326593,2029.8932755639246,6032.126838537146
2.7633768844221107,899.3167344888229,898.7157175488662,0.2689363500863903,0.3237746452101307,0.1702253547898693,0.35472546709282915,2029.3483600266102,6036.626868810053
2.7686105527638194,899.7670158395737,899.1614215495986,0.2698065885881965,0.32408496103217993,0.1699150389678201,0.3547300048215201,2028.7961564012785,6041.12304560728
2.773844221105528,900.2215107929242,899.6110165689578,0.2706884778177024,0.3243981512484574,0.16960184875154263,0.3547358834061438,2028.2365598899041,6045.6154107122575
2.784311557788945,901.1436138616216,900.5225706834694,0.27248789254235306,0.325033262110883,0.16896673788911695,0.354751803398058,2027.0947541293394,6054.588877033314
2.794778894472362,902.0838934076245,901.4515295812638,0.27433600472579656,0.3256801965793003,0.1683198034206997,0.35477351859512374,2025.9220477441365,6063.5476168601235
2.805246231155779,903.0431059773356,902.398802539476,0.2762342884094205,0.32633917941862123,0.16766082058137877,0.3548013375427388,2024.7175053918622,6072.491988708977
2.815713567839196,904.0219705473345,903.3651821815986,0.27818427805791784,0.32701044054903533,0.16698955945096466,0.3548355854922626,2023.4801533889058,6081.422359420713
2.826180904522613,905.0211986849821,904.3514111385849,0.28018756782905313,0.3276942145874469,0.16630578541255317,0.3548766045953797,2022.2089801738446,6090.339103734768
2.8366482412060305,906.0415111539588,905.3582183860954,0.28224581211971767,0.32839074056385925,0.16560925943614072,0.35492475438527865,2020.9029359609483,6099.242604227686
2.8471155778894475,907.0836471430132,906.3863392858407,0.2843607267444981,0.3291002616962103,0.16489973830378968,0.3549804124282253,2019.560931992327,6108.133251450559
2.8575829145728644,908.1483693583808,907.4365268695599,0.2865340903298973,0.3298230251360176,0.1641769748639824,0.3550439750823473,2018.1818396532374,6117.011444174642
2.862816582914573,908.6894457449639,907.9701374938298,0.28764326380006844,0.3301894509439982,0.16381054905600173,0.35507884984282606,2017.4780215504081,6121.445997037261
2.8680502512562813,909.2364665736509,908.5095583971978,0.28876774558072416,0.33055928159413617,0.16344071840586386,0.3551158583300593,2016.7644896685056,6125.877589693381
2.8732839195979896,909.7895346137913,909.05489117465,0.289907776141958,0.3309325488797488,0.16306745112025117,0.3551550557531577,2016.0410914189501,6130.306274439127
2.8785175879396983,910.3487542295812,909.606239347937,0.29106359999292786,0.3313092847159856,0.16269071528401444,0.35519649866073966,2015.3076716502019,6134.732104143283
2.883751256281407,910.9142312734969,910.1637084195062,0.292235465627847,0.3316895210904142,0.16231047890958583,0.35524024497080364,2014.5640726820327,6139.155132256325
2.8889849246231156,911.4860729221276,910.7274059142234,0.2934236254273612,0.3320732899969574,0.16192671000304265,0.3552863540011102,2013.8101343681067,6143.575412818354
2.8942185929648243,912.0643874362394,911.2974414096049,0.29462833549888556,0.33246062334727505,0.16153937665272497,0.3553348865000333,2013.0456941972927,6147.993000465458
2.899452261306533,912.6492838197308,911.8739265543963,0.29584985543345355,0.3328515528515078,0.16114844714849222,0.35538590467784437,2012.2705874479552,6152.407950433801
2.9046859296482417,913.2408713424425,912.456975074536,0.2970884479482798,0.33324610985727793,0.1607538901427221,0.35543947223839,2011.4846474147616,6156.820318560586
2.90991959798995,913.8392588785032,913.0467027647319,0.29834437837263694,0.3336443251316456,0.16035567486835445,0.35549565441112524,2010.6877057349172,6161.230161280662
2.915153266331658,914.4445539936495,913.6432274630188,0.2996179139185154,0.3340462285648837,0.15995377143511633,0.3555545179834624,2009.8795928509626,6165.63753561715
2.920386934673367,915.0568616897444,914.2466690045869,0.30090932265507625,0.33445184876680806,0.15954815123319194,0.35561613133339653,2009.060138661526,6170.042499163885
2.9256206030150755,915.6762826798997,914.8571491497321,0.3022188720746256,0.3348612125150801,0.1591387874849199,0.3556805644623702,2008.2291734312753,6174.445110056609
2.9308542713567842,916.3029110194313,915.4747914785246,0.30354682709430086,0.33527434399914263,0.15872565600085742,0.35574788902834464,2007.3865290589335,6178.845426928798
2.936087939698493,916.9368308514111,916.0997212409783,0.30489344727716633,0.3356912637815545,0.15830873621844546,0.35581817837905366,2006.5320408406117,6183.243508846391
2.941321608040201,917.5781119341902,916.7320651445001,0.306258982972719,0.336111987368202,0.15788801263179802,0.35589150758542176,2005.6655499188253,6187.639415213613
2.9465552763819094,918.2268034935463,917.3719510470455,0.3076436699617951,0.336536523237251,0.15746347676274902,0.3559679534751314,2004.7869066805283,6192.033205639118
2.951788944723618,918.8829257738556,918.0195074983603,0.3090477220346269,0.33696487012020965,0.15703512987979035,0.3560475946662897,2003.8959754666562,6196.424939747689
2.9570226130653268,919.5464584400017,918.674863020578,0.31047132072239597,0.33739701325317767,0.15660298674682227,0.3561305116010419,2002.9926410878945,6200.814676917241
2.9622562814070355,920.2173246958457,919.3381449194358,0.311914601132708,0.3378329192190051,0.15616708078099487,0.3562167865786653,2002.0768178126768,6205.202475913567
2.967489949748744,920.8953696364938,920.0094772236286,0.31337763250660683,0.3382725288814061,0.155727471118594,0.3563065037869558,2001.1484617045933,6209.588394385541
2.9727236180904524,921.5803309648779,920.6889769806124,0.314860391739538,0.33871574777794716,0.15528425222205283,0.3563997493290852,2000.2075874244742,6213.972488171088
2.9779572864321606,922.2717998559081,921.3767474505715,0.316362727760626,0.33916243321633766,0.15483756678366234,0.35649661123968307,1999.2542908332643,6218.354810349054
2.9831909547738693,922.9691696256316,922.0728655083906,0.31788431451169313,0.339612377269992,0.15438762273000797,0.3565971794770135,1998.2887788288515,6222.7354099551385
2.988424623115578,923.6715703256186,922.7773584697625,0.3194245906546604,0.3400652850221079,0.15393471497789207,0.35670154586494884,1997.3114076043043,6227.114330264229
2.9936582914572867,924.3777890883094,923.4901622938165,0.3209826856876213,0.34052074799272847,0.1534792520072715,0.3568098039345949,1996.322729530389,6231.491606533456
2.9988919597989954,925.0861800012518,924.2110487533861,0.32255733583976454,0.34097821405833734,0.1530217859416627,0.35692204857535764,1995.3235465238477,6235.867263113161
3.0041256281407036,925.7945746845548,924.9395050891621,0.32414680013295966,0.3414369577728578,0.15256304222714218,0.3570383753449037,1994.314963309917,6240.241309887732
3.009359296482412,926.5002162369905,925.6745502070589,0.32574879804767015,0.3418960590720169,0.1521039409279831,0.357158879212234,1993.29842697598,6244.613738134154
3.0145929648241205,927.1997531451848,926.414485346514,0.3273605038063749,0.3423544033147458,0.15164559668525415,0.3572836524480161,1992.2757305989776,6248.984516108741
3.019826633165829,927.8893395801318,927.156615043816,0.32897864204881766,0.34281071911975747,0.1511892808802425,0.3574127814034512,1991.248952535366,6253.353584988686
3.025060301507538,928.5648817800917,927.8970367415443,0.3305997231901145,0.3432636678876715,0.15073633211232854,0.3575463421410529,1990.220307076307,6257.720856128703
3.0302939698492466,929.222434123062,928.6306543168571,0.33222042082977105,0.34371198541504605,0.15028801458495394,0.357684395367745,1989.1919049654748,6262.086210767651
3.035527638190955,929.85868471503,929.3515568310311,0.3338380294824654,0.34415465217658164,0.14984534782341838,0.3578269817603179,1988.165462949255,6266.449503108452
3.040761306532663,930.4714084417235,930.0537695954102,0.3354508789648803,0.34459104602596424,0.14940895397403575,0.35797411919034167,1987.142040830542,6270.81056698696
3.0459949748743718,931.0597513680517,930.7321810897611,0.3370585701889281,0.34502102711713045,0.14897897288286951,0.3581258031132314,1986.1218918478314,6275.169225334173
3.0512286432160804,931.6242659426921,931.3833262461554,0.33866195868281657,0.3454449280880509,0.14855507191194914,0.35828201042236163,1985.1044731318093,6279.525300792813
3.056462311557789,932.1667111900928,932.0057716766071,0.340262912850194,0.3458634601593501,0.14813653984064987,0.3584427058882544,1984.088599100287,6283.878625609645
3.061695979899498,932.6897073288244,932.6000470632174,0.3418639494835209,0.34627757383432284,0.14772242616567716,0.3586078495867738,1983.0726727405852,6288.229049356674
3.0669296482412065,933.1963545816168,933.1682477829512,0.3434678624745136,0.3466883177055425,0.14731168229445749,0.35877740375941686,1982.054921208672,6292.576443826427
3.072163316582915,933.6898994107252,933.7135010651464,0.3450774245560518,0.34709672524319535,0.14690327475680467,0.35895133811477054,1981.033585086704,6296.920705192009
3.0773969849246234,934.1734882210653,934.2394538657039,0.34669519206502064,0.3475037407367215,0.1464962592632785,0.3591296332497831,1980.0070422693702,6301.261753981959
3.0826306532663317,934.6500129326679,934.7498677595079,0.3483234055810053,0.34791018164051213,0.14608981835948784,0.35931228235500345,1978.9738710128988,6305.599533571305
3.0878643216080404,935.1220331137224,935.2483431177848,0.34996396200678115,0.348316728087648,0.14568327191235197,0.3594992915995233,1977.9328676511827,6309.934007833495
3.093097989949749,935.5917531141671,935.738158279745,0.35161843131259035,0.3487239294485778,0.1452760705514222,0.359690679630402,1976.8830359708195,6314.265158448648
3.0983316582914573,936.0610341243366,936.2221956773545,0.35328809620955737,0.3491322196990396,0.14486778030096034,0.35988647655864475,1975.8235620366268,6318.592982201645
3.1035653266331655,936.5314255809809,936.7029265135047,0.35497399993920153,0.34954193596157024,0.1444580640384298,0.36008672270800784,1974.7537838671506,6322.917488467769
3.108798994974874,937.0042051472071,937.1824308740343,0.3566769934239876,0.3499533368682736,0.1440466631317264,0.3602914673113678,1973.6731615156189,6327.238696984695
3.114032663316583,937.4804204693304,937.662436591996,0.35839777738074824,0.3503666190416967,0.14363338095830328,0.36050076726654295,1972.5812503471705,6331.556635944555
3.1192663316582916,937.9609288086855,938.144365811085,0.3601369377499596,0.3507819310381652,0.14321806896183484,0.3607146860113209,1971.4776785574613,6335.87134040069
3.129733668341709,938.9375095598405,939.1184354156455,0.3636723236070611,0.3516190641679072,0.14238093583209274,0.36115666060668444,1969.2343247145936,6344.49121276954
3.140201005025126,939.9382286703565,940.1116228221102,0.3672864857374454,0.3524653381360498,0.1415346618639502,0.3616179957334511,1966.940983950202,6353.098688125522
3.150668341708543,940.9661023547259,941.1286308873727,0.37098220303385326,0.3533210973177133,0.14067890268228672,0.36209935242391983,1964.595892937747,6361.6941898262885
3.1611356783919597,942.0233914132467,942.172736165237,0.3747619832900449,0.35418654512643805,0.13981345487356203,0.362601434587966,1962.1974603746112,6370.278175506324
3.1716030150753767,943.1119240968444,943.2463578003068,0.3786282181808686,0.3550618086245959,0.13893819137540417,0.3631249804746429,1959.7441686406025,6378.851128256892
3.182070351758794,944.2332942775724,944.3514202969806,0.3825832646245624,0.3559469732418304,0.13805302675816958,0.36367075739074023,1957.2345221700882,6387.413551643824
3.1873040201005027,944.8067577046253,944.9162650615878,0.3845948298441062,0.3563932884547062,0.1376067115452938,0.3639522293886166,1955.9580978283498,6391.690977101501
3.1925376884422114,945.388979930563,945.4895770216373,0.3866294859985171,0.3568421009272429,0.1371578990727571,0.3642395584605207,1954.6670212988267,6395.965967041075
3.19777135678392,945.9801389099118,946.0715423656236,0.3886875327551496,0.3572934162363004,0.13670658376369962,0.3645328474496757,1953.3611024297395,6400.238589204418
3.2030050251256283,946.5804122970239,946.6623438600723,0.390769272010831,0.35774723936494557,0.13625276063505443,0.3648322005997241,1952.0401496546128,6404.508912329546
3.2082386934673366,947.1899782185174,947.2621624025397,0.39287500800048714,0.3582035747739424,0.13579642522605764,0.3651377235225391,1950.703969923348,6408.777006146728
3.2134723618090453,947.8090158500537,947.871178192549,0.3950050473445463,0.35866242644787066,0.13533757355212928,0.36544952316925583,1949.3523686721421,6413.042941379493
3.218706030150754,948.4377058447894,948.4895716106093,0.3971596990513571,0.35912379792313875,0.1348762020768612,0.36576770780313433,1947.9851498219546,6417.306789749255
3.223939698492462,949.0762306496243,949.1175238750689,0.39933927448597933,0.3595876923030935,0.13441230769690646,0.3660923869731573,1946.602115798311,6421.568623982639
3.2291733668341704,949.72477473665,949.7552175304171,0.40154408731319974,0.3600541122639404,0.13394588773605962,0.3664236714874939,1945.2030675674614,6425.828517820739
3.234407035175879,950.3835247704844,950.4028368080195,0.403774453420127,0.3605230600541022,0.13347693994589782,0.36676167338613447,1943.7878046854971,6430.086546029808
3.239640703517588,951.0526697270163,951.0605678904308,0.40603069082194254,0.3609945374888733,0.13300546251112666,0.3671065059121382,1942.3561253581563,6434.342784412929
3.2448743718592965,951.7324009751469,951.7285991028228,0.40831311955313243,0.361468545941669,0.132531454058331,0.36745828348103066,1940.9078265098424,6438.597309822401
3.250108040201005,952.4229123301261,952.4071210492284,0.41062206154563974,0.361945086332775,0.13205491366722502,0.36781712164796937,1939.4427038609394,6442.850200172577
3.255341708542714,953.1244000848181,953.0963267068247,0.41295784049476386,0.36242415911622466,0.13157584088377536,0.36818313707234934,1937.9605520129082,6447.101534452972
3.2605753768844226,953.83706302353,953.7964114880931,0.4153207817132033,0.362905764265232,0.13109423573476794,0.36855644747956195,1936.4611645408988,6451.351392741524
3.265809045226131,954.5611024217566,954.5075732781106,0.4177112119733386,0.3633899012564731,0.13061009874352694,0.3689371716196522,1934.9443340938321,6455.599856217872
3.271042713567839,955.2967220342421,955.2300124522975,0.4201294593376511,0.36387656905341,0.13012343094659004,0.36932542922263895,1933.409852502003,6459.847007176585
3.2762763819095477,956.0441280730432,955.963931878483,0.4225758529770239,0.36436576608878807,0.12963423391121193,0.36972134095027903,1931.8575108923792,6464.0929290402455
3.2815100502512564,956.8035291767509,956.7095369060629,0.4250507229765794,0.3648574902463875,0.12914250975361255,0.370125028344068,1930.2870998118042,6468.337706372343
3.286743718592965,957.5751363716305,957.4670353442132,0.4275544001286379,0.3653517388420815,0.12864826115791853,0.37053661376927327,1928.6984093583737,6472.581424889916
3.291977386934674,958.3591630251514,958.2366374305082,0.4300872157123314,0.36584850860423157,0.12815149139576845,0.3709562203548033,1927.0912293212807,6476.824171475879
3.297211055276382,959.1558247921573,959.018555790854,0.4326495012593786,0.366347795653434,0.127652204346566,0.3713839719287178,1925.4653493294418,6481.066034191009
3.3024447236180903,959.9653395537691,959.813005391304,0.4352415883055002,0.366849595481625,0.12715040451837503,0.3718199929491849,1923.8205590092327,6485.307102285529
3.307678391959799,960.787927348989,960.6202034820795,0.4378638081269381,0.36735390293054193,0.12664609706945806,0.3722644084306913,1922.1566481516809,6489.54746621024
3.3129120603015076,961.6238102988902,961.4403695339345,0.44051649146153216,0.3678607121695378,0.12613928783046222,0.3727173438653137,1920.4734068894522,6493.787217627159
3.3181457286432163,962.4732125232066,962.2737251668666,0.4431999682138003,0.36837001667273966,0.1256299833272603,0.3731789251388575,1918.7706258839917,6498.0264494196435
3.323379396984925,963.3363600490817,963.1204940710729,0.44591456714346256,0.3688818091955435,0.12511819080445655,0.37364927844166984,1917.0480965231668,6502.265255701887
3.3286130653266333,964.2134807117086,963.9809019199755,0.44866061553684805,0.3693960817504334,0.12460391824956658,0.37412853017393455,1915.3056111297756,6506.503731827812
3.3338467336683415,965.1048040465514,964.8551762750816,0.45143843886062807,0.36991282558211785,0.12408717441788215,0.37461680684525656,1913.542963181266,6510.741974399254
3.33908040201005,966.0105611728234,965.7435464823997,0.4542483603973167,0.37043203114196904,0.123567968858031,0.3751142349683454,1911.7599475410284,6514.980081273421
3.344314070351759,966.9309846678772,966.6462435601055,0.45709070086199016,0.37095368806175794,0.12304631193824207,0.37562094094660947,1909.9563607016019,6519.218151569533
3.3495477386934676,967.8663084321505,967.5635000771161,0.4599657779996862,0.3714777851266745,0.12252221487332547,0.3761370509554737,1908.1320010401419,6523.456285674624
3.3547814070351762,968.816767544297,968.4955500222219,0.4628739061629512,0.37200431024762376,0.12199568975237622,0.3766626908172399,1906.2866690864862,6527.694585248423
3.3600150753768845,969.7825981061295,969.4426286634031,0.4658153958690223,0.37253325043278973,0.12146674956721025,0.3771979858693103,1904.4201678041395,6531.933153227258
3.3652487437185927,970.764037076994,970.4049723969508,0.4687905533361487,0.37306459175846046,0.12093540824153955,0.377743060825603,1902.5323028844994,6536.172093826917
3.3704824120603014,971.7613220971909,971.382818586004,0.47179967999857475,0.3735983193391071,0.12040168066089292,0.37829803963099323,1900.6228830546186,6540.411512544402
3.37571608040201,972.7746913000599,972.3764053881048,0.47484307199973746,0.37413441729671254,0.11986558270328743,0.3788630453086225,1898.691720398795,6544.651516158507
3.380949748743719,973.8043831123451,973.385971571378,0.4779210196632583,0.3746728687293463,0.11932713127065371,0.37943819979992843,1896.7386306942485,6548.892212729141
3.3861834170854275,974.8506360424608,974.4117563189317,0.4810338069413406,0.37521365567898196,0.11878634432101802,0.38002362379725574,1894.7634337611362,6553.133711595334
3.3914170854271357,975.9136884562802,975.4539990210835,0.48418171084022626,0.3757567590985587,0.11824324090144134,0.3806194365689251,1892.7659538271262,6557.376123371844
3.396650753768844,976.9937783400852,976.5129390550177,0.48736500082240425,0.3763021588182859,0.11769784118171413,0.38122575577664575,1890.7460199067207,6561.619559944278
3.4018844221105526,978.0911430503111,977.5888155514832,0.49058393818531293,0.37684983351119555,0.11715016648880448,0.3818426972851777,1888.7034661954967,6565.864134462661
3.4071180904522613,979.2060190497467,978.6818671481524,0.49383877541633164,0.37739976065794595,0.11660023934205405,0.3824703749641622,1886.638132479391,6570.109961333364
3.41235175879397,980.3386416298539,979.7923317292683,0.4971297555239152,0.3779519165108856,0.11604808348911434,0.3831089004820617,1884.5498645591247,6574.357156209295
3.4175854271356787,981.4892446188941,980.9204461512265,0.5004571113447875,0.3785062760573858,0.11549372394261419,0.38375838309216914,1882.4385146898176,6578.605835978291
3.4228190954773874,982.6580600755626,982.066445953741,0.5038210648271815,0.379062812982454,0.11493718701754602,0.38441892941066924,1880.3039420358036,6582.85611874959
3.428052763819096,983.8453179678636,983.2305650562795,0.5072218262901883,0.3796214996306443,0.11437850036935573,0.38509064318675973,1878.1460131406059,6587.10812383832
3.4332864321608043,985.0512458369737,984.4130354394567,0.5106595936593602,0.38018230696728117,0.11381769303271885,0.3857736250648676,1875.964602411979,6591.3619717479
3.4385201005025126,986.2760684458817,985.614086811114,0.5141345516787988,0.3807452045390187,0.11325479546098126,0.38646797233902247,1873.759592621873,6595.61778415025
3.4437537688442212,987.5200074126113,986.8339462568276,0.5176468711000555,0.3813101604337591,0.11268983956624087,0.38717377869948083,1871.5308754211103,6599.875683863739
3.44898743718593,988.7832808278862,988.0728378746319,0.5211967078482694,0.3818771412399574,0.11212285876004256,0.3878911339717289,1869.2783518685083,6604.13579482875
3.454221105527638,990.0661028571194,989.3309823937684,0.5247842021660802,0.38244611200534584,0.11155388799465417,0.38862012384802475,1867.0019329741008,6608.398242080773
3.4594547738693464,991.3686833266631,990.6085967773153,0.5284094777359566,0.3830170361951112,0.1109829638048888,0.3893608296116776,1864.7015402560612,6612.663151720949
3.464688442211055,992.691227294297,991.9058938085923,0.5320726407817075,0.3835898756495658,0.11041012435043417,0.39011332785430347,1862.3771063108302,6616.93065088392
3.469922110552764,994.0339346039826,993.2230816612825,0.535773779150066,0.3841645905413549,0.1098354094586451,0.3908776901863322,1860.028575395891,6621.200867702941
3.4751557788944725,995.3969994249709,994.5603634532613,0.539512961373364,0.3847411393322493,0.10925886066775069,0.3916539829410901,1857.6559040245418,6625.473931272108
3.480389447236181,996.7806097754019,995.9179367841803,0.543290235714455,0.3853194787295761,0.10868052127042391,0.3924422668728203,1855.2590615719334,6629.749971605652
3.48562311557789,998.1849470305989,997.2959932569058,0.5471056291951748,0.3858995636423444,0.10810043635765558,0.3932425968490531,1852.8380308915532,6634.029119594153
3.4908567839195985,999.6101854163297,998.6947179829815,0.550959146609788,0.3864813471371297,0.10751865286287028,0.39405502153778477,1850.392808941235,6638.311506957624
3.4960904522613068,1001.0564914873696,1000.114289072344,0.5548507695250011,0.387064780393784,0.106935219606216,0.3948795830899711,1847.9234074176927,6642.597266195343
3.501324120603015,1002.524023591778,1001.5548771075958,0.558780455268291,0.38764981266104553,0.10635018733895445,0.3957163168178931,1845.429853398472,6646.886530532355
3.5065577889447237,1004.0129313213776,1003.016644603209,0.5627481359064366,0.3882363912121267,0.10576360878787328,0.39656525087000066,1842.912189990113,6651.179433862555
3.5117914572864324,1005.5233549489982,1004.4997454501172,0.5667537172163107,0.3888244613003641,0.10517553869963592,0.39742640590289324,1840.3704769812273,6655.476110688267
3.5170251256281406,1007.0554248531399,1006.0043243462287,0.5707970776501416,0.3894139661150217,0.10458603388497828,0.39829979475114685,1837.8047914990857,6659.776696056237
3.522258793969849,1008.6092609307832,1007.5305162134833,0.5748780672976098,0.39000484673734326,0.10399515326265672,0.39918542209574703,1835.215228668211,6664.081325489965
3.5274924623115576,1010.1849719991723,1009.07844560216,0.5789965068473039,0.3905970420969548,0.10340295790304521,0.4000832841319394,1832.6019022693781,6668.390134918314
3.5327261306532662,1011.782655187478,1010.6482260832347,0.5831521865502136,0.3911904889287263,0.10280951107127369,0.40099336823735815,1829.964945397323,6672.703260600304
3.537959798994975,1013.4023953193459,1012.2399596296851,0.5873448651880937,0.391785121730207,0.10221487826979302,0.4019156526413434,1827.3045111153608,6677.020839046064
3.5431934673366836,1015.0442642874185,1013.8537359877241,0.5915742690496703,0.3923808727197531,0.1016191272802469,0.40285010609640337,1824.6207731050247,6681.343006933869
3.5484271356783923,1016.7083204210224,1015.4896320390527,0.5958400909178104,0.39297767179547566,0.10102232820452434,0.40379668755282344,1821.9139263087527,6685.669901023219
3.553660804020101,1018.3946078482959,1017.1477111553133,0.6001419890709082,0.39357544649513976,0.10042455350486025,0.4047553458374664,1819.1841875635484,6690.001658063925
3.5588944723618092,1020.1031558541298,1018.8280225460271,0.6044795863018637,0.39417412195715357,0.09982587804284647,0.4057260193378488,1816.4317962234832,6694.3384147011775
3.5641281407035175,1021.8339782353858,1020.5306006013941,0.6088524689581517,0.39477362088279155,0.0992263791172084,0.40670863569261306,1813.6570147688115,6698.68030737656
3.569361809045226,1023.5870726549389,1022.2554642314374,0.6132601860065765,0.39537386349980114,0.09862613650019887,0.40770311148954846,1810.8601293994268,6703.027472225015
3.574595477386935,1025.3624199961894,1024.0026162030638,0.6177022481264063,0.39597476752754696,0.09802523247245305,0.4087093519723405,1808.041450610304,6707.380044967755
3.5798291457286435,1027.159983719762,1025.7720424767153,0.6221781268346601,0.3965762481438554,0.09742375185614457,0.4097272507572545,1805.2013137465437,6711.738160801126
3.585062814070352,1028.979709224196,1027.563711544371,0.6266872536473739,0.3971782179537224,0.09682178204627763,0.410756689560973,1802.340079535585,6716.101954281448
3.5902964824120605,1030.8215232125065,1029.377573770744,0.6312290192807315,0.39778058696005486,0.09621941303994515,0.4117975379408214,1799.458134594121,6720.471559205872
3.5955301507537687,1032.6853330665572,1031.213560739621,0.6358027728959659,0.3983832625366215,0.09561673746337855,0.4128496530486224,1796.5558919072428,6724.847108489278
3.6007638190954774,1034.571026231267,1033.07158460734,0.6404078213919475,0.39898614940338845,0.09501385059661156,0.4139128793994168,1793.633791277321,6729.228734037306
3.605997487437186,1036.4784696107056,1034.9515374655027,0.645043428749365,0.3995891496044236,0.09441085039557638,0.4149870486562837,1790.692299740153,6733.616566615563
3.6112311557788948,1038.407508978206,1036.8532907150704,0.6497088154303796,0.4001921624885525,0.09380783751144753,0.4160719794324781,1787.7319119459057,6738.0107357151
3.6164648241206034,1040.3579684026465,1038.776694454046,0.6544031578375656,0.40079508469295316,0.09320491530704683,0.41716747711208,1784.7531505024428,6742.411369414279
3.6216984924623117,1042.3296496930946,1040.7215768810086,0.6591255878358886,0.4013978101298788,0.09260218987012127,0.4182733336903233,1781.7565662786499,6746.818594237099
3.62693216080402,1044.3223318640241,1042.6877437167943,0.6638751923413639,0.40200022997669693,0.09199977002330306,0.41938932763473163,1778.7427386654472,6751.232535008164
3.6321658291457286,1046.335770623337,1044.674977646657,0.668651012979919,0.4026022326694374,0.09139776733056264,0.4205152237681474,1775.7122757922566,6755.653314704395
3.6373994974874373,1048.3696978854061,1046.683037785253,0.6734520458198362,0.40320370390003607,0.09079629609996391,0.42165077317468475,1772.6658146967786,6760.081054303654
3.642633165829146,1050.4238213113715,1048.7116591668196,0.6782772411809881,0.4038045266174676,0.09019547338253246,0.4227957131295783,1769.6040214460409,6764.515872630473
3.6478668341708547,1052.4978238788806,1050.760552262893,0.6831255035238761,0.4044045810329503,0.08959541896704974,0.42394976705383175,1766.5275912068066,6768.957886199045
3.653100502512563,1054.5913634834383,1052.8294025299178,0.687995691421276,0.40500374462941197,0.088996255370588,0.425112644494494,1763.437248263568,6773.407209053701
3.658334170854271,1056.7040725734976,1054.917869989056,0.6928866176150573,0.4056018921753956,0.08839810782460443,0.42628404113131046,1760.333745982491,6777.863952607083
3.66356783919598,1058.8355578213504,1057.0255888404795,0.6977970491604785,0.4061988957435827,0.08780110425641732,0.4274636388104058,1757.2178667198552,6782.328225476238
3.6688015075376885,1060.985399831825,1059.1521671143632,0.7027257076599934,0.40679462473410793,0.08720537526589209,0.42865110560556086,1754.0904216736917,6786.80013331689
3.674035175879397,1063.1531528907105,1061.2971863607438,0.7076712695883048,0.4073889459028295,0.08661105409717053,0.42984609590754763,1750.952250677524,6791.27977865614
3.679268844221106,1065.3383447547403,1063.460201380319,0.7126323667100866,0.4079817233947155,0.08601827660528451,0.4310482505418747,1747.8042219353053,6795.767260723863
3.684502512562814,1067.5404764848654,1065.6407399981829,0.7176075865914728,0.4085728187824976,0.08542718121750241,0.4322571969151913,1744.6472316968566,6800.262675283102
3.6897361809045224,1069.7590223244345,1067.8383028823807,0.722595473206075,0.40916209111073454,0.08483790888926548,0.433472549190482,1741.4822038733223,6804.766114459722
3.694969849246231,1071.9934296237782,1070.0523634090544,0.7275945276359292,0.40974939694541856,0.08425060305458146,0.43469390849106354,1738.3100895923899,6809.277666571676
3.7002035175879397,1074.2431188125597,1072.2823675758232,0.7326032088674254,0.41033459042924736,0.08366540957075264,0.4359208631332815,1735.1318666932384,6813.797415958145
3.7054371859296484,1076.5074834211157,1074.5277339649103,0.737619934681902,0.41091752334267284,0.08308247665732721,0.43715298888767995,1731.9485391614185,6818.325442808944
3.710670854271357,1078.7858901518598,1076.7878537573642,0.7426430826402164,0.41149804517082467,0.08250195482917533,0.4383898492682969,1728.761136504098,6822.861822994455
3.715904522613066,1081.0776790016648,1079.0620907995844,0.7476709911602347,0.4120760031763958,0.08192399682360424,0.439630995849616,1725.5707130663527,6827.406627896495
3.7211381909547745,1083.3821634359738,1081.3497817231766,0.7527019606858079,0.41265124247855967,0.08134875752144032,0.44087596861058675,1722.378347289397,6831.959924240421
3.7263718592964827,1085.6986306152296,1083.6502361189998,0.757734254945442,0.4132236061379786,0.0807763938620214,0.4421242963050051,1719.1851409119051,6836.521773928858
3.731605527638191,1088.0263416740224,1085.9627367660817,0.7627661022985013,0.41379293524794303,0.08020706475205693,0.44337549685743155,1715.992218115788,6841.092233877377
3.7368391959798997,1090.364532053195,1088.2865399158861,0.7677956971664271,0.41435906903166936,0.07964093096833062,0.44462907778371163,1712.8007246180232,6845.671355852518
3.7420728643216083,1092.712411884946,1090.6208756322342,0.7728212015461189,0.4149218449457637,0.07907815505423633,0.44588453663505434,1709.61182671035,6850.259186312493
3.7473065326633166,1095.0688289753955,1092.9646432329673,0.7778399384907447,0.415481008676301,0.07851899132369897,0.4471411592021426,1706.4272230302586,6854.856510832781
3.752540201005025,1097.4316205305777,1095.315800495907,0.7828469071210072,0.4160360515323713,0.07796394846762873,0.44839764485051153,1703.250086849987,6859.466239958611
3.7577738693467335,1099.7997761587426,1097.673319511396,0.7878399663700277,0.41658678896494755,0.07741321103505241,0.4496534034880894,1700.0817767682302,6864.088641556089
3.763007537688442,1102.1723828608474,1100.0362715731255,0.7928172155865277,0.4171330647410752,0.0768669352589248,0.4509079036894448,1696.92349882968,6868.723741000181
3.768241206030151,1104.5485162129585,1102.4037248186264,0.7977767394412364,0.41767472224443103,0.07632527775556895,0.4521606091019956,1693.7764683928451,6873.371557487015
3.7734748743718596,1106.927239054213,1104.7747398290771,0.8027166101396801,0.4182116046216775,0.07578839537832249,0.453410979100246,1690.6419087259385,6878.032103944889
3.7787085427135683,1109.3076009162191,1107.148366977623,0.8076348896028539,0.41874355493101884,0.07525644506898119,0.4546584694261999,1687.521049623149,6882.70538693919
3.783942211055277,1111.6886379620958,1109.5236449679155,0.8125296316303915,0.41927041629330114,0.07472958370669888,0.455902532820899,1684.4151260320182,6887.391406575355
3.789175879396985,1114.069373278022,1111.8996001852809,0.8173988840541158,0.4197920320458057,0.0742079679541943,0.45714261964978725,1681.3253766869184,6892.090156402788
3.7944095477386934,1116.4488174105843,1114.2752466050024,0.8222406908853427,0.42030824589875104,0.07369175410124897,0.4583781785231064,1678.2530427464976,6896.801623321726
3.799643216080402,1118.8259690771604,1116.6495860845785,0.8270530944563123,0.42081890209442624,0.07318109790557378,0.4596086569115358,1675.1993664348502,6901.525787494468
3.804876884422111,1121.1998159994819,1119.0216089223877,0.8318341375541408,0.4213238455688131,0.07267615443118694,0.4608335017566365,1672.165589687431,6906.262622262025
3.810110552763819,1123.5693358259166,1121.3902946026503,0.8365818655443921,0.4218229221155082,0.07217707788449174,0.46205216007524114,1669.1529528035599,6911.012094066918
3.8153442211055273,1125.933497118358,1123.7546126718023,0.8412943284805279,0.42231597855172287,0.07168402144827712,0.46326407955665583,1666.1626931078845,6915.774162382676
3.820577889447236,1128.2912603865734,1126.1135237083622,0.8459695831949823,0.42280286288611235,0.0711971371138876,0.46446870915138483,1663.1960436235038,6920.548779650482
3.8258115577889447,1130.6415791575275,1128.465980359804,0.8506056953673066,0.4232834244881744,0.07071657551182563,0.4656654996499895,1660.2542317596426,6925.335891223249
3.8310452261306533,1132.9834010703098,1130.8109284275954,0.8552007415646735,0.42375751425893754,0.07024248574106244,0.4668539042506578,1657.3384780168617,6930.135435317415
3.836278894472362,1135.3156689894026,1133.1473079867203,0.8597528112499758,0.42422498480265863,0.06977501519734136,0.4680333791140396,1654.4499947128368,6934.947342972624
3.8415125628140707,1137.6373221303977,1135.4740545294458,0.8642600087527702,0.42468569059923694,0.06931430940076302,0.46920338390392263,1651.5899847317064,6939.771538019454
3.8467462311557794,1139.9472971932141,1137.790100125403,0.8687204551983874,0.4251394881770566,0.06886051182294337,0.47036338231234553,1648.7596402999718,6944.607937055299
3.8519798994974876,1142.2445294984786,1140.0943745915984,0.8731322903906197,0.4255862362859635,0.06841376371403654,0.4715128425677795,1645.9601417918493,6949.456449428487
3.8554690117252934,1143.7684124800164,1141.6234890437956,0.8760455982146262,0.4258800833123444,0.06811991668765559,0.47227303453287456,1644.1115231214676,6952.695472591347
3.8589581239530992,1145.2858433363137,1143.1465783295325,0.8789359432796278,0.426170694959088,0.06782930504091199,0.47302815391813086,1642.2774753057927,6955.939805292451
3.862447236180905,1146.7965070310443,1144.6633251871851,0.8818027905560067,0.4264580312400255,0.06754196875997451,0.4737780471352264,1640.458337844047,6959.189415297624
3.865936348408711,1148.3000889987864,1146.17341268224,0.884645609867189,0.42674205272117816,0.06725794727882178,0.4745225617994873,1638.6544471559885,6962.444268942004
3.869425460636516,1149.7962752912097,1147.6765243601549,0.8874638761060365,0.4270227205432142,0.06697727945678579,0.4752615467857221,1636.866136444601,6965.704331132491
3.872914572864322,1151.2847527219824,1149.172344398176,0.8902570694453266,0.42729999644379624,0.06670000355620377,0.4759948522820258,1635.0937355625356,6968.96956535093
3.8781482412060306,1153.5023319209088,1151.4017137301917,0.8943987241919223,0.42770946827250456,0.06629053172749548,0.47708383714099417,1632.4656781263313,6973.877030851219
3.883381909547739,1155.700814412002,1153.6129090739068,0.8984810972410952,0.428111099414365,0.06588890058563497,0.47815921448279647,1629.8752374677863,6978.795913703258
3.888615577889447,1157.8791571703352,1155.8048770828043,0.902502507059245,0.42850476896523393,0.06549523103476608,0.47922049683028367,1627.3234805920351,6983.726072762481
3.893849246231156,1160.036324562631,1157.9765713338757,0.9064613036750869,0.4288903595980572,0.06510964040194278,0.4802672045485087,1624.8114544765713,6988.667359804985
3.8973383584589616,1161.4621644129659,1159.4125911362737,0.9090649163356532,0.4291428754806235,0.06485712451937649,0.48095667949860466,1623.159350660042,6991.967657002046
3.9008274706867674,1162.877834156604,1160.8388331731965,0.9116395106908506,0.42939171746997373,0.0646082825300263,0.481639329476993,1621.5256602019115,6995.272783394925
3.904316582914573,1164.2830336795566,1162.2549938671084,0.9141846228226576,0.42963685365790516,0.06436314634209483,0.48231501854566405,1619.9106774780455,6998.5826898990845
3.907805695142379,1165.67746496621,1163.6607716886501,0.9166997958260847,0.42987825294793053,0.06412174705206948,0.48298361249221816,1618.3146924142422,7001.8973260749335
3.9112948073701848,1167.0608322174467,1165.0558672837658,0.9191845799409479,0.43011588507566373,0.06388411492433632,0.48364497885715513,1616.7379904026138,7005.216640138446
3.91478391959799,1168.4328419651492,1166.4399835974057,0.9216385326753227,0.43034972062898613,0.06365027937101386,0.48429898695837403,1615.1808522232502,7008.54057897236
3.918273031825796,1169.79320318288,1167.8128259936068,0.9240612189204863,0.4305797310679925,0.06342026893200753,0.4849455079128142,1613.6435539712832,7011.869088137982
3.9217621440536017,1171.1416273925252,1169.1741023717414,0.9264522110571534,0.43080588874471665,0.06319411125528336,0.48558441465516455,1612.1263669894763,7015.202111887545
3.9252512562814075,1172.4778287666827,1170.523523278744,0.9288110890528044,0.43102816692264256,0.06297183307735742,0.4862155819535671,1610.6295578064646,7018.5395931771245
3.9287403685092133,1173.8015242265726,1171.8608020170955,0.9311374405499059,0.4312465397960046,0.06275346020399537,0.48683888642223455,1609.1533880807754,7021.881473680091
3.9322294807370186,1175.1124335352379,1173.1856547483583,0.9334308609448042,0.431460982508886,0.06253901749111404,0.4874542065308955,1607.6981145507668,7025.227693801053
3.9357185929648244,1176.4102793857976,1174.4978005920514,0.9356909534570761,0.4316714711741268,0.062328528825873204,0.4880614226109779,1606.2639889906227,7028.578192690308
3.93920770519263,1177.6947874845023,1175.796961719631,0.9379173291890986,0.43187798289205526,0.0621220171079448,0.4886604168584303,1604.8512581725515,7031.932908258747
3.9426968174204355,1178.9656866283358,1177.0828634433626,0.9401096071755951,0.43208049576905916,0.06191950423094084,0.4892510733330755,1603.4601638353488,7035.291777193199
3.9461859296482413,1180.2227087768904,1178.355234299839,0.9422674144228931,0.43227898893602035,0.06172101106397964,0.4898332779543807,1602.0909426594849,7038.654734972188
3.949675041876047,1181.465589118228,1179.613806127901,0.9443903859376074,0.4324734425666349,0.0615265574333651,0.4904069184935146,1600.743826248905,7042.02171588208
3.9531641541038525,1182.694066128431,1180.858314140709,0.9464781647444522,0.4326638378956507,0.061336162104349265,0.49097188456155333,1599.4190411197274,7045.392653033583
3.9566532663316583,1183.9078816245176,1182.0884969916956,0.9485304018928411,0.4328501572370568,0.06114984276294321,0.4915280675936804,1598.116808696054,7048.767478378583
3.960142378559464,1185.1067808103846,1183.304096834115,0.9505467564519197,0.43303238400226324,0.06096761599773675,0.49207536082920844,1596.8373453131233,7052.14612272726
3.96363149078727,1186.290512315408,1184.5048593738973,0.9525268954936293,0.43321050271832046,0.06078949728167957,0.4926136592872333,1595.5808622280565,7055.528515765478
3.9671206030150756,1187.4588282253094,1185.6905339154891,0.9544704940633665,0.4333844990462291,0.060615500953770954,0.49314285973770783,1594.3475656384767,7058.914586072399
