z,T,t,fs,x,y,w,rhob,p
0.0,556.2446355635502,298.0,0.0,0.2264787262615676,0.26752127373843243,0.35471982487705106,2200.0,2040.0
0.0026705128205128208,580.4479935816468,353.6780732955061,6.891922756762743e-07,0.2264789756123314,0.26752102438766856,0.35471982487705106,2199.9995626779646,2045.5745632997741
0.0053410256410256415,601.5778545209012,401.82743341660307,3.109207341325745e-06,0.22647985117728825,0.26752014882271175,0.35471982487705106,2199.99802707469,2051.4995604466467
0.008011538461538462,620.0960098868587,443.6915673858633,8.73715227383891e-06,0.22648188737591848,0.26751811262408154,0.35471982487705106,2199.994455902433,2057.7321545935133
0.010682051282051283,636.378448600417,480.2538131478123,1.8990416826751933e-05,0.22648559702188847,0.2675144029781115,0.35471982487705106,2199.9879497666484,2064.234247285018
0.016023076923076925,663.423813964428,540.4904510853518,5.749441642649444e-05,0.22649952782472763,0.2675004721752724,0.35471982487705106,2199.963517328731,2077.9153868312146
0.021364102564102566,684.6335302974725,587.3088575717733,0.00012344305869420243,0.22652338813904535,0.26747661186095467,0.35471982487705106,2199.921670088842,2092.315319143647
0.026705128205128208,701.381086690581,624.0164233877042,0.0002174143315526123,0.22655738708170947,0.2674426129182905,0.35471982487705106,2199.8620412888727,2107.2548097275444
0.03204615384615385,714.6758379768174,652.9861871617137,0.00033765841668916176,0.22660089156591945,0.26739910843408055,0.35471982487705106,2199.785741263536,2122.5927277082824
0.03738717948717949,725.2746292004971,675.9651025840994,0.00048145268837409476,0.22665291654174174,0.26734708345825825,0.35471982487705106,2199.69449763554,2138.2179438770772
0.04272820512820513,733.7538359704498,694.264663113085,0.0006458488998781508,0.2267123953292383,0.2672876046707617,0.35471982487705106,2199.590181193789,2154.0429724605788
0.053410256410256415,746.0313385361719,720.5940763182206,0.0010254995678933296,0.22684975349095757,0.26715024650904245,0.35471982487705106,2199.3492765741903,2186.0319811753025
0.05875128205128206,750.4469646062772,729.9963420535618,0.0012360359480907022,0.2269259258583345,0.26707407414166556,0.35471982487705106,2199.2156822179672,2202.0993382188944
0.0640923076923077,754.0174839933087,737.5601076097672,0.0014577947978783711,0.22700615853146805,0.26699384146853194,0.35471982487705106,2199.0749667238265,2218.1679705367137
0.07477435897435898,759.2651439255028,748.5784234626188,0.0019290010304767776,0.22717664162909765,0.2668233583709024,0.3547198248770511,2198.7759661746895,2250.2113453334928
0.08011538461538462,761.1842892898371,752.5609505460935,0.0021760709066449306,0.22726603186824587,0.2667339681317541,0.3547198248770511,2198.619189749552,2266.1504604190222
0.08545641025641026,762.7549799984722,755.7895995536142,0.0024295418032391253,0.22735773800585793,0.26664226199414204,0.3547198248770511,2198.4583516026246,2282.017516854706
0.09613846153846153,765.1116928611909,760.5506203885375,0.002952904306987966,0.22754709131795287,0.26645290868204713,0.3547198248770511,2198.1262556641746,2313.5018309564193
0.10147948717948718,765.9969251148559,762.2977816841014,0.003221707555957286,0.2276443447228675,0.2663556552771325,0.3547198248770511,2197.9556884825643,2329.1074804552013
0.10682051282051282,766.7368496850967,763.7310539639559,0.0034946957212660373,0.22774311223657676,0.26625688776342327,0.35471982487705117,2197.782465792183,2344.617027118162
0.1175025641025641,767.8890949393002,765.8898685276697,0.004051977852367543,0.22794473771899004,0.26605526228100995,0.35471982487705117,2197.428846396479,2375.3392944270195
0.1281846153846154,768.7357636980587,767.388240617239,0.004622787076564156,0.22815125732328298,0.265848742676717,0.35471982487705117,2197.066643480474,2405.659288322701
0.1388666666666667,769.3851109105593,768.4596417225766,0.0052058150331085505,0.22836219768264163,0.2656378023173584,0.3547198248770512,2196.6966872551343,2435.5765501285546
0.14954871794871796,769.9072487892482,769.2552062615728,0.005800189755882016,0.22857724331846094,0.2654227566815391,0.3547198248770512,2196.319531020332,2465.095948252525
0.16023076923076923,770.3475944138133,769.8728057298493,0.006405329738479886,0.22879618384088124,0.26520381615911875,0.3547198248770513,2195.9355437668028,2494.225446603048
0.17091282051282053,770.7355646919212,770.3758203945115,0.007020846619051534,0.22901887874002236,0.2649811212599777,0.3547198248770513,2195.5449719267854,2522.9747069902546
0.18159487179487183,771.0902075034695,770.8052853383904,0.007646480487378284,0.22924523397999055,0.26475476602000947,0.35471982487705134,2195.147980424452,2551.354220088129
0.1922769230769231,771.423851608756,771.1877585910463,0.008282056972277215,0.22947518647303924,0.2645248135269607,0.35471982487705134,2194.744679905791,2579.374770959518
0.20830000000000004,771.9015868005956,771.7092049281353,0.009253818546646857,0.22982677121851763,0.26417322878148236,0.3547198248770514,2194.128055539929,2620.756016658686
0.22432307692307696,772.3654489769192,772.1968038583595,0.0102474488339122,0.2301862680960047,0.2638137319039953,0.35471982487705145,2193.497554538504,2661.3890122559196
0.2563692307692308,773.280902556287,773.1336435951608,0.012299838241836,0.230928825557258,0.26307117444274203,0.35471982487705156,2192.1952254996304,2740.5422149171563
0.28841538461538463,774.1995666917244,774.0614172378388,0.014438764060174632,0.23170269201717184,0.2622973079828282,0.35471982487705167,2190.8379853996453,2817.0780289946592
0.32046153846153846,775.1293206978992,774.9969733498363,0.01666420684005425,0.23250786043911548,0.2614921395608845,0.3547198248770518,2189.4258465796925,2891.2092216767533
0.3525076923076923,776.0723785813012,775.9449324202385,0.018976358751657874,0.23334440035053958,0.26065559964946045,0.3547198248770519,2187.958687099555,2963.1216382595085
0.3845538461538462,777.0294461655282,776.9066459674468,0.021375551680902542,0.2342124318282497,0.2597875681717503,0.35471982487705206,2186.4362963633953,3032.9784514940384
0.40591794871794873,777.6754346389981,777.5556833801443,0.023023584913113234,0.2348086926393057,0.2591913073606943,0.35471982487705217,2185.390548647562,3078.479528365227
0.4272820512820514,778.327856444427,778.211137268184,0.024710654740228873,0.23541907694695385,0.25858092305304614,0.3547198248770523,2184.3200305392643,3123.1700348267923
0.4486461538461539,778.9867725232951,778.8730763436703,0.02643693564118231,0.23604364787792484,0.2579563521220752,0.3547198248770524,2183.224631324142,3167.0857770278944
0.47001025641025646,779.6522432649328,779.5415650954242,0.028202619259352187,0.23668247476907073,0.25731752523092927,0.3547198248770525,2182.1042293962587,3210.26001352949
0.49137435897435905,780.3243302789248,780.2166676819071,0.03000791354081385,0.23733563285558282,0.2566643671444172,0.3547198248770526,2180.958692804916,3252.723705071693
0.5127384615384616,781.0030970961282,780.8984495023584,0.03185304197646731,0.2380032029967925,0.2559967970032075,0.3547198248770528,2179.787879735561,3294.5057337122043
0.5341025641025642,781.6886094361286,781.5869778227267,0.033738242926809485,0.23868527143187296,0.25531472856812704,0.3547198248770529,2178.591638938243,3335.633095769403
0.5554666666666667,782.3809353018271,782.282322019559,0.035663769015613876,0.2393819295604714,0.25461807043952855,0.35471982487705306,2177.3698101123496,3376.131072287197
0.5768307692307693,783.080145007301,782.9845536714853,0.03762988658257865,0.2400932737446765,0.2539067262553235,0.3547198248770532,2176.122224253929,3416.0233801400104
0.5981948717948719,783.7863111820147,783.6937465915945,0.03963687518714204,0.24081940512949804,0.253180594870502,0.3547198248770534,2174.848703970536,3455.3323064010256
0.6195589743589743,784.4995087689086,784.4099768384777,0.04168502715702108,0.24156042947952755,0.25243957052047244,0.35471982487705356,2173.5490637677062,3494.0788281881355
0.6409230769230769,785.2198150237572,785.1333227212441,0.043774647175989015,0.2423164570297956,0.2516835429702044,0.3547198248770537,2172.2231103105273,3532.282719864315
0.6622871794871795,785.9473095194736,785.8638648048573,0.045906051906141936,0.24308760234910734,0.2509123976508927,0.35471982487705395,2170.8706426633285,3569.962649189185
0.6836512820512821,786.682074158193,786.601685918773,0.048079569640499656,0.24387398421435297,0.250126015785647,0.3547198248770541,2169.4914525101185,3607.1362637856773
0.7050153846153847,787.4241931947304,787.3468711708944,0.05029553998228295,0.24467572549446978,0.2493242745055302,0.35471982487705433,2168.0853243580996,3643.8202690911808
0.7263794871794872,788.1737532772174,788.0995079691517,0.0525543135476372,0.2454929530428871,0.2485070469571129,0.35471982487705456,2166.6520357263007,3680.030498799601
0.7477435897435898,788.9308435149189,788.8596860542664,0.054856251688951994,0.24632579759742307,0.24767420240257693,0.3547198248770548,2165.191357321145,3715.781978663694
0.7691076923076924,789.6955555907246,789.6274975497034,0.05720172623627822,0.24717439368672872,0.24682560631327127,0.354719824877055,2163.7030532005283,3751.0889844116673
0.7904717948717949,790.4679839491238,790.4030370391732,0.0595911192546952,0.24803887954250337,0.24596112045749666,0.3547198248770553,2162.1868809277853,3785.9650944348336
0.8118358974358975,791.2482261142353,791.1864016896695,0.06202482281586673,0.2489193970168429,0.2450806029831571,0.35471982487705556,2160.6425917166403,3820.423237821704
0.8332,792.0363832351916,791.9776914514262,0.06450323878250916,0.2498160915042604,0.24418390849573962,0.35471982487705583,2159.0699305679786,3854.4757382466314
0.8545641025641025,792.8325610336367,792.7770093898876,0.06702677860518004,0.2507291118681636,0.24327088813183637,0.3547198248770561,2157.4686363987876,3888.1343541676424
0.8759282051282052,793.6368714695795,793.5844622470701,0.0695958631318687,0.25165861037196485,0.24234138962803514,0.35471982487705644,2155.8384421629808,3921.410315749504
0.8972923076923078,794.4494357022741,794.4001614057285,0.072210922432664,0.25260474261564536,0.2413952573843547,0.3547198248770568,2154.179074962656,3954.314358908286
0.9186564102564104,795.2703894055595,795.2242245677703,0.07487239564490875,0.25356766747973186,0.24043233252026813,0.3547198248770571,2152.490256146349,3986.8567568810627
0.9400205128205129,796.0998923976198,796.0567787116565,0.07758073084986605,0.2545475470806747,0.23945245291932535,0.35471982487705744,2150.771701387295,4019.0473497758408
0.9613846153846155,796.938146232687,796.8979653647865,0.08033638500219431,0.2555445467453311,0.2384554532546689,0.35471982487705783,2149.023120728179,4050.8955726846625
0.9827487179487181,797.7854265698702,797.7479501203238,0.08313982395262919,0.25655883501917226,0.2374411649808277,0.3547198248770582,2147.2442185667446,4082.4104832082908
1.0041128205128207,798.6421430563848,798.6069400686079,0.08599152264049932,0.25759058373593546,0.23640941626406456,0.3547198248770586,2145.434693533633,4113.600789757996
1.0254769230769232,799.5089503707649,799.4752163428838,0.08889196560319611,0.25863996820195073,0.2353600317980493,0.35471982487705905,2143.5942381691034,4144.474882976069
1.0468410256410257,800.3869534340647,800.3531965404147,0.09184164809199608,0.25970716759984747,0.23429283240015253,0.3547198248770595,2141.722538214996,4175.040874410328
1.0682051282051284,801.2780812936618,801.2415590394669,0.09484107838541264,0.2607923658255283,0.23320763417447174,0.35471982487706,2139.8192711468105,4205.306649737218
1.0895692307692308,802.1857447633286,802.1415024990819,0.09789078256835572,0.26189575321727565,0.23210424678272434,0.3547198248770605,2137.8841031411253,4235.2799489255785
1.1109333333333333,803.1159065280351,803.0553100743085,0.10099131462030282,0.26301753020566726,0.23098246979433276,0.354719824877061,2135.91668267422,4264.968492331683
1.132297435897436,804.0785428659375,803.9875688330545,0.10414327816816962,0.2641579151837956,0.22984208481620438,0.35471982487706155,2133.916626718946,4294.380174796237
1.1536615384615385,805.0888634998854,804.9474945724976,0.10734737239091527,0.26531716111562115,0.22868283888437885,0.35471982487706216,2131.88349161629,4323.523332110382
1.175025641025641,806.1664603749,805.9519053846717,0.11060447752228171,0.266495586470987,0.22750441352901304,0.3547198248770628,2129.8167188202183,4352.407014328881
1.1963897435897437,807.3302133343011,807.0252909632877,0.11391577178495751,0.26769361753256876,0.22630638246743126,0.35471982487706344,2127.715560697939,4381.041080120794
1.2177538461538462,808.5902668074497,808.1919411810311,0.11728280510918213,0.2689118150673726,0.22508818493262736,0.3547198248770641,2125.579033752291,4409.435895536892
1.2391179487179487,809.9434717189392,809.4635044308313,0.12070742485393372,0.27015084745255336,0.22384915254744664,0.3547198248770648,2123.4059657548282,4437.60166500888
1.2604820512820514,811.3764703465918,810.8341829234442,0.12419156000876698,0.2714114125993265,0.2225885874006735,0.3547198248770656,2121.1951326790086,4465.547757383248
1.2818461538461539,812.8727594277095,812.2871164687006,0.12773699839880334,0.27269415734541114,0.22130584265458886,0.35471982487706644,2118.9454000731707,4493.282374816621
1.3032102564102566,814.4180449332864,813.8036311233457,0.13134525368644354,0.2739996293360568,0.22000037066394318,0.3547198248770673,2116.6558074536506,4520.81259459457
1.324574358974359,816.0021409769489,815.3686524811992,0.13501749401126145,0.27532825120585375,0.21867174879414625,0.35471982487706827,2114.3256135858255,4548.144602455807
1.3459384615384618,817.6186139138571,816.9719270264588,0.13875442427618914,0.276680277989704,0.21731972201029598,0.3547198248770693,2111.9543711785745,4575.283947323854
1.3673025641025642,819.2636283101882,818.6071232760993,0.14255595865131987,0.278055678634223,0.215944321365777,0.35471982487707043,2109.5421346946523,4602.235737906915
1.3886666666666667,820.934714887674,820.2703635320272,0.14642038913498429,0.2794538351819322,0.21454616481806782,0.3547198248770716,2107.089987934318,4629.00476510945
1.4100307692307694,822.6295359193241,821.9587320403139,0.15034242431470107,0.28087283319212974,0.21312716680787028,0.35471982487707293,2104.601288525566,4655.595554822354
1.431394871794872,824.3442923322021,823.6686098966469,0.15430877589972705,0.2823078649419729,0.21169213505802711,0.35471982487707426,2102.0844684583703,4682.012347497151
1.4527589743589744,826.0710657857823,825.3932323328763,0.1582889346766655,0.2837478921538535,0.21025210784614654,0.35471982487707576,2099.5588871361692,4708.25897363044
1.474123076923077,827.7933905554343,827.1187268697781,0.1622190927124896,0.2851698290251585,0.20883017097484144,0.35471982487707737,2097.065033427095,4734.338556832841
1.506169230769231,830.2998100649021,829.6486823402552,0.1677617451574001,0.28717516870982435,0.20682483129017568,0.35471982487708,2093.5479829085516,4773.148354103989
1.5382153846153848,832.5959875441497,831.9955742639823,0.17247150185926285,0.28887916550797005,0.20512083449202992,0.3547198248770829,2090.559440434504,4811.584498781338
1.5595794871794872,833.9761797991764,833.4162170136626,0.17506197250593727,0.28981640154096416,0.2041835984590358,0.35471982487708503,2088.915675789018,4836.9966056032445
1.5809435897435897,835.2473352990581,834.7245403013937,0.17727910663757301,0.29061856388193363,0.20338143611806633,0.35471982487708725,2087.508809162461,4862.235720967772
1.6023076923076924,836.4322094792897,835.9396762346811,0.17921211015558192,0.29131792735524925,0.20268207264475074,0.35471982487708964,2086.282235587277,4887.299979160148
1.623671794871795,837.5532569755765,837.083682584993,0.18093931722039677,0.2919428333736448,0.20205716662635526,0.3547198248770921,2085.1862486814916,4912.188685709633
1.6450358974358974,838.6287795942665,838.1759589010483,0.1825202806019819,0.2925148282155723,0.20148517178442774,0.3547198248770947,2084.183059660302,4936.902146813874
1.6664,839.6726129947521,839.2317502198528,0.18399825345491472,0.2930495609350223,0.20095043906497767,0.35471982487709747,2083.2452225434226,4961.441420818453
1.6877641025641026,840.6949534644207,840.2624849679963,0.18540449194660827,0.2935583400586484,0.20044165994135163,0.35471982487710035,2082.3529039530795,4985.808099190695
1.709128205128205,841.7033045968798,841.2766100872409,0.1867618439066758,0.29404943196430605,0.19995056803569397,0.35471982487710335,2081.4916059621896,5010.004140539907
1.7304923076923078,842.7032458899836,842.2803896319527,0.18808730448273994,0.2945289855210274,0.19947101447897259,0.3547198248771065,2080.650544421224,5034.031751895808
1.7518564102564103,843.6989913542777,843.278525750129,0.18939375334350037,0.2950016606116079,0.1989983393883921,0.35471982487710985,2079.8215466284055,5057.893305414781
1.7732205128205132,844.6937791371831,844.2746050414752,0.19069112704863753,0.2954710522977358,0.19852894770226417,0.35471982487711334,2078.998307410766,5081.591280006764
1.7945846153846157,845.6901404453964,845.2714100956018,0.19198721779539013,0.2959399798076613,0.19806002019233868,0.35471982487711695,2078.1758822852053,5105.128220122172
1.8159487179487181,846.6900890589529,846.2711375749111,0.1932882400271767,0.29641069153601657,0.19758930846398343,0.3547198248771208,2077.350327921041,5128.506706361097
1.8373128205128209,847.6956782633654,847.2758084564925,0.19460111822268755,0.29688569276922383,0.1971143072307762,0.3547198248771248,2076.517250439781,5151.729336757948
1.8408735042735045,847.8642929154981,847.4440801390652,0.19482299095722116,0.2969659666460228,0.19703403335397718,0.35471982487712544,2076.376462680888,5155.5848089519495
1.8444341880341881,848.0335552652151,847.6128265445083,0.19504726721140814,0.2970471101197146,0.19695288988028545,0.3547198248771261,2076.2341497857665,5159.436040938778
1.847994871794872,848.2036076134257,847.7821715756062,0.19527447366608927,0.29712931374419027,0.1968706862558097,0.35471982487712683,2076.0899775528524,5163.283048729269
1.849775213675214,848.2886795959566,847.8669506632987,0.19538796314680673,0.29717037440273514,0.19682962559726486,0.35471982487712717,2076.0179636135017,5165.204973291481
1.8515555555555558,848.3726624725866,847.9512001183302,0.1954961661702178,0.2972095224133676,0.1967904775866324,0.35471982487712755,2075.9493041578753,5167.1258451897
1.8524457264957266,848.41345832451,847.9926899720067,0.19554466183252173,0.29722706821424866,0.19677293178575134,0.3547198248771277,2075.918531581758,5168.085884600142
1.8533358974358976,848.4530276261206,848.0334990115282,0.1955874988138132,0.29724256669614124,0.19675743330385875,0.3547198248771279,2075.891349681258,5169.045657434775
1.8551162393162395,848.5288984161842,848.1131486726217,0.19565852997834648,0.29726826587437777,0.19673173412562225,0.3547198248771282,2075.8462773631686,5170.964395372292
1.8568965811965814,848.6024688075531,848.1910910063215,0.19572013527394921,0.29729055475957916,0.19670944524042083,0.3547198248771286,2075.807186162882,5172.8820477364125
1.8586769230769233,848.6752136080232,848.2680500060922,0.19577936793631098,0.2973119852226366,0.19668801477736342,0.35471982487712894,2075.7696005000707,5174.798610640887
1.8693589743589745,849.106277780078,848.7175149577241,0.1961349497933874,0.2974406352536855,0.19655936474631444,0.3547198248771311,2075.5439685725332,5186.275112877766
1.8800410256410258,849.5325941605354,849.1538235888854,0.19649641294181547,0.2975714131444662,0.19642858685553377,0.3547198248771333,2075.314604713578,5197.712516970161
1.9014051282051285,850.3818566773286,850.0107330142348,0.1972370582671197,0.297839379696191,0.19616062030380899,0.3547198248771378,2074.8446335127296,5220.470982432323
1.922769230769231,851.2350867138725,850.8648221673257,0.19800237866306794,0.2981162737242234,0.1958837262757766,0.35471982487714254,2074.359004922055,5243.076262373874
1.9441333333333335,852.0965679286819,851.7248608884348,0.19879398750205307,0.2984026789490326,0.1955973210509674,0.3547198248771475,2073.856695187626,5265.530875523118
1.9654974358974362,852.9680616311232,852.5940662348311,0.19961357580189942,0.29869920718331733,0.19530079281668264,0.35471982487715265,2073.3366312861604,5287.837397009091
1.9868615384615387,853.8505107598382,853.4738527872543,0.20046285617123202,0.2990064780513594,0.19499352194864064,0.354719824877158,2072.7977264940887,5309.99839337319
2.0082256410256414,854.7445952523408,854.3650531916388,0.20134354961529335,0.29932511421534874,0.19467488578465125,0.3547198248771635,2072.238888759827,5332.016402593008
2.0295897435897436,855.6509128672154,855.2683147035083,0.20225738350319336,0.299655740639932,0.194344259360068,0.35471982487716935,2071.659021993645,5353.893928602858
2.0509538461538463,856.5700384011623,856.1842281684671,0.20320609316933125,0.29999898517160895,0.19400101482839105,0.3547198248771754,2071.0570250514947,5375.633440463212
2.072317948717949,857.5025435622906,857.1133703890088,0.20419142477504387,0.300355479574081,0.193644520425919,0.35471982487718173,2070.431789919173,5397.237373012378
2.0936820512820513,858.4490041842121,858.0563185641633,0.2052151387046045,0.30072586075692864,0.19327413924307138,0.3547198248771883,2069.7821995574127,5418.70812798648
2.115046153846154,859.4100034173456,859.0136557875221,0.20627901328613293,0.30111077212184195,0.19288922787815804,0.35471982487719517,2069.107125540808,5440.048075285653
2.1364102564102567,860.3861336888688,859.9859737327419,0.2073848487890416,0.3015108650089027,0.19248913499109732,0.3547198248772023,2068.4054255212623,5461.259554286232
2.157774358974359,861.3779983302949,860.9738745002265,0.208534471680414,0.30192680023654767,0.19207319976345236,0.3547198248772098,2067.6759405271337,5482.3448751696
2.1791384615384617,862.3862131600033,861.9779722576853,0.20972973912633458,0.3023592497301569,0.19164075026984315,0.35471982487721765,2066.91749210695,5503.306320260828
2.2005025641025644,863.411408108093,862.9988948734485,0.21097254371239751,0.3028088982299402,0.19119110177005977,0.3547198248772258,2066.128879334039,5524.146145377152
2.2218666666666667,864.4542289049951,864.0372856000798,0.21226481834880215,0.30327644506560825,0.19072355493439178,0.3547198248772343,2065.3088756940415,5544.866581188172
2.2432307692307694,865.5153388323314,865.0938048188339,0.21360854131626808,0.3037626059819913,0.19023739401800874,0.35471982487724324,2064.4562258830574,5565.469834589901
2.264594871794872,866.595420526921,866.1691318397501,0.2150057414065037,0.3042681149988687,0.18973188500113133,0.35471982487725257,2063.5696425457986,5585.958090094409
2.2859589743589743,867.6951778259559,867.2639667467106,0.2164585031086322,0.30479372628742524,0.18920627371257476,0.35471982487726234,2062.6478029845825,5606.333511236376
2.307323076923077,868.8153376414701,868.3790322757671,0.21796897179640698,0.3053402160469931,0.18865978395300692,0.35471982487727255,2061.689345867817,5626.598241997299
2.3286871794871797,869.9566518530131,869.5150757153422,0.21953935887497095,0.30590838436715667,0.18809161563284332,0.35471982487728326,2060.692867964165,5646.754408247675
2.350051282051282,871.1198992097284,870.6728708189336,0.22117194685411934,0.3064990570632668,0.18750094293673317,0.3547198248772945,2059.656920923339,5666.804119207114
2.3714153846153847,872.3058322784892,871.8531795545584,0.22286887381232867,0.3071130076952139,0.18688699230478614,0.3547198248773062,2058.580148042914,5686.749468114973
2.3927794871794874,873.5153396151194,873.0568564658214,0.2246328223150558,0.3077512068190666,0.18624879318093343,0.3547198248773185,2057.460847120141,5706.5925338313555
2.4141435897435897,874.749309702317,874.2847932244287,0.22646634982584068,0.3084145797288388,0.18558542027116118,0.35471982487733145,2056.2973953347973,5726.335384983531
2.4355076923076924,876.0086461916743,875.537890845548,0.22837205586978265,0.3091040669364777,0.1848959330635223,0.354719824877345,2055.0881431768,5745.9800796139825
2.456871794871795,877.2942879113319,876.8170822746777,0.23035263884641347,0.3098206447268431,0.1841793552731569,0.3547198248773592,2053.831378396,5765.5286665705
2.4782358974358973,878.6072122176804,878.1233378441821,0.23241089938450402,0.3105653263714819,0.18343467362851812,0.3547198248773742,2052.525323873416,5784.983187056316
2.4996,879.9484371924082,879.4576681091288,0.2345497437944564,0.311339163377708,0.182660836622292,0.3547198248773899,2051.1681354305406,5804.345676222092
2.531646153846154,882.0156707731038,881.5141187165001,0.23791573228393315,0.31255698288976197,0.18144301711023805,0.35471982487741505,2049.032271477318,5833.221292589216
2.5636923076923077,884.1527471575349,883.6398585197321,0.24148050248458075,0.313846721912907,0.180153278087093,0.3547198248774422,2046.7702720091413,5861.90125037574
2.5957384615384616,886.3636749583509,885.8388675033904,0.2452553089507799,0.31521245236122336,0.17878754763877666,0.35471982487747156,2044.374995528918,5890.3923912003875
2.627784615384616,888.6527168840445,888.1153786579364,0.24925203114380107,0.3166584722410091,0.17734152775899087,0.35471982487750336,2041.838904009352,5918.7015674285085
2.649148717948718,890.224368137004,889.6783209451537,0.2520459597098369,0.317669319643974,0.17633068035602603,0.354719824877526,2040.0660365944066,5937.47665429007
2.670512820512821,891.8341579164336,891.2791067898556,0.2549479520439178,0.3187192646747772,0.17528073532522281,0.35471982487755,2038.2245980873322,5956.175968969223
2.6918769230769235,893.4835574495397,892.9191979086587,0.2579620244104843,0.31980976042371195,0.17419023957628804,0.35471982487757536,2036.3120399962158,5974.801566181302
2.7132410256410258,895.1740986814237,894.6001165996842,0.26109233331711135,0.32094231072124063,0.17305768927875936,0.3547198248776022,2034.325724838865,5993.355511342055
2.7346051282051285,896.9073764659188,896.3234479810046,0.2643431784369573,0.3221184711953412,0.17188152880465882,0.35471982487763054,2032.262924288389,6011.83988234743
2.755969230769231,898.6859783665697,898.0908422126835,0.26772287546062573,0.3233398492375527,0.1706601507624473,0.3547212261150293,2030.1183616827132,6030.256769733149
2.7773333333333334,900.5264532476954,899.9125739476644,0.271281565488845,0.32460810159210435,0.16939189840789565,0.35474051296845643,2027.8602203445212,6048.608526843749
2.798697435897436,902.4402344665232,901.8034806772653,0.275039236977857,0.3259250042032282,0.16807499579677182,0.3547831413461071,2025.4758167416792,6066.897972173196
2.820061538461539,904.4340017741204,903.7718843355394,0.27900833731541635,0.32729245874956925,0.16670754125043077,0.35485171305225954,2022.9572524731975,6085.128139763995
2.841425641025641,906.5138552179283,905.8242384056663,0.2832023693771249,0.3287124550996126,0.16528754490038738,0.354949123578384,2020.2959593858125,6103.302208687572
2.862789743589744,908.6860841125919,907.9668238866265,0.2876358925480892,0.3301870581418808,0.16381294185811915,0.355078575642583,2017.4826989256997,6121.423495998741
2.8841538461538465,910.9573913526854,910.2062570530934,0.29232456378775223,0.33171839675679177,0.16228160324320823,0.3552436050750486,2014.5075360810804,6139.495464036834
2.9162000000000003,914.5658049655326,913.7627297448165,0.2998729205395819,0.33412651243661984,0.15987348756338016,0.35556649580396227,2009.7177802210408,6166.518902371677
2.948246153846154,918.4372748310058,917.5796777872969,0.3080931842843483,0.33667392661394874,0.15732607338605123,0.3559931849588669,2004.5016705779688,6193.452448117731
2.980292307692308,922.5815268674926,921.6858496003616,0.3170370594059103,0.339362168385206,0.15463783161479402,0.35654085016432363,1998.8263985044039,6220.309573593929
2.996315384615385,924.7364231359884,923.8544145216403,0.3217779175729908,0.3407521617490584,0.15324783825094163,0.35686610615379494,1995.8181208177557,6233.713409191427
3.012338461538462,926.898493146962,926.0943447453603,0.32666298059402493,0.342156510624727,0.151843489375273,0.357229180156532,1992.7183389710656,6247.102019666235
3.033702564102564,929.6383815002199,929.100348432459,0.3332723567218452,0.34400044975521826,0.14999955024478173,0.35777652288463685,1988.5244065589868,6264.928247177446
3.0443846153846152,930.8805584698409,930.5250918792866,0.3365623560574293,0.34488888768402487,0.14911111231597515,0.3580784114819392,1986.4367609805872,6273.828410886339
3.055066666666667,932.0234949375906,931.8417922867898,0.3398340380130058,0.34575183156556805,0.14824816843443195,0.3583991668718802,1984.360738564833,6282.7180505240985
3.0764307692307695,934.0845275570025,934.1434411030143,0.34639366021060775,0.34742816397576887,0.14657183602423113,0.3590961152762399,1980.198377153789,6300.460595822463
3.097794871794872,936.0125196440965,936.1723804021346,0.3531139530961949,0.34908979060614925,0.14491020939385074,0.35986590034811,1975.9340633053316,6318.1492711313795
3.1191589743589745,937.9506327455254,938.1340244041396,0.36009885740362485,0.35077289784676685,0.14322710215323314,0.36070994160553005,1971.5018421692255,6335.782872114731
3.140523076923077,939.9690313290256,940.1421120349805,0.3673966783168821,0.3524910277857811,0.14150897221421888,0.36163217384589,1966.8710620360105,6353.3633365514515
3.1618871794871795,942.1000556424095,942.2483762687625,0.3750342736518481,0.3542485499220031,0.1397514500779969,0.36263794476707584,1962.0246804704602,6370.894014424329
3.183251282051282,944.3614812633666,944.4776924016872,0.3830326883003573,0.3560469477919655,0.13795305220803453,0.36373338490491003,1956.9493435867817,6388.378900820811
3.204615384615385,946.7664844088634,946.8454548823189,0.39141206103746834,0.3578868595385039,0.13611314046149608,0.36492514235454976,1951.6322724691104,6405.822362635332
3.225979487179487,949.3272669379793,949.3643760044564,0.400192910051168,0.3597686447708556,0.13423135522914442,0.3662202810168981,1946.0604474478173,6423.229058666617
3.24734358974359,952.0562547705777,952.0468459037196,0.40939638369175996,0.3616925202887343,0.13230747971126572,0.36762623559602026,1940.2204489882772,6440.603926436771
3.2687076923076925,954.9664617567149,954.9056849823777,0.41904422531975527,0.36365858024326375,0.13034141975673624,0.36915077872012697,1934.0984799963871,6457.952190061939
3.290071794871795,958.071579435798,957.9543585769385,0.42915864050392677,0.3656667864267649,0.12833321357323507,0.3708019826038502,1927.680450087094,6475.279374007951
3.3114358974358975,961.3859707410636,961.2070134544477,0.43976210397257665,0.3677169499556184,0.12628305004438162,0.37258816752007023,1920.9520980820869,6492.591317775489
3.3328,964.9246177855443,964.67844529885,0.4508771065804875,0.3698087090604967,0.12419129093950332,0.3745178324619592,1913.8991525701128,6509.894189657809
3.3541641025641025,968.7030338326987,968.3840252487087,0.46252583398612623,0.37194150378698404,0.12205849621301597,0.37659956418730833,1906.5075358000606,6527.194498523639
3.375528205128205,972.7371374281805,972.3395886440321,0.47472976687328156,0.37411454757425383,0.11988545242574618,0.37884192099945996,1898.7636173574654,6544.4991026899825
3.396892307692308,977.0430829437526,976.5612816040933,0.4875091924823785,0.37632679554508564,0.11767320445491437,0.381253287728612,1890.6545241188244,6561.815214853039
3.41825641025641,981.6370406332089,981.0653587259545,0.5008826181363224,0.3785769093710028,0.11542309062899721,0.3838416986794814,1882.1685123945833,6579.1504018852675
3.439620512820513,986.5349191658556,985.8679245788409,0.514866079456066,0.3808632186662502,0.11313678133374974,0.386614625948716,1873.2954068960066,6596.512578129135
3.4609846153846155,991.7520241905412,990.9846119254217,0.5294723393380573,0.3831836790003552,0.1108163209996448,0.3895787316012142,1864.0271090183169,6613.9099906453075
3.482348717948718,997.3026478568946,996.4301906478848,0.5447099787843327,0.3855358268052943,0.10846417319470568,0.3927395838239682,1854.3581737479644,6631.351194724131
3.5037128205128205,1003.199586533076,1002.2181033260044,0.560582387531389,0.3879167316958328,0.1060832683041672,0.39610133941378817,1844.286450151868,6648.8450178662015
3.525076923076923,1009.4535873528707,1008.3599264720182,0.5770866711527642,0.3903229470241056,0.10367705297589441,0.3996663978108519,1833.8137748676645,6666.400510406794
3.5571230769230775,1019.5208584222758,1018.2553116382375,0.6030029506359225,0.3939707815327679,0.10002921846723212,0.40539511076625734,1817.3687848379084,6692.869547974569
3.5891692307692313,1030.4213213459798,1028.9834087082875,0.6302433567449581,0.3976502030945046,0.0963497969054954,0.4115713076002028,1800.0835797157492,6719.529380442862
3.621215384615385,1042.1450154701479,1040.5394291445668,0.6586836818424181,0.40134157672739695,0.09265842327260305,0.4181696847914265,1782.0369745703354,6746.410892706073
3.653261538461539,1054.6542400250833,1052.8915472204876,0.6881409539890122,0.40502156599730044,0.08897843400269953,0.42514737926135127,1763.3450729388007,6773.543557617923
3.685307692307693,1067.8788106717088,1065.9758221868112,0.718369201641606,0.4086630131591267,0.08533698684087332,0.4324425558944001,1744.163954306902,6800.954244245916
3.7173538461538467,1081.7126193951287,1079.69231517785,0.7490590003030486,0.41223501274958346,0.08176498725041653,0.43997416992250704,1724.6899617791312,6828.665869797411
3.7387179487179494,1091.204280087006,1089.1213373387395,0.7695953838918167,0.4145609353601747,0.07943906463982532,0.44507834064709234,1711.6587462613327,6847.316395267786
3.7600820512820516,1100.8432993722977,1098.7124679640028,0.7900315292119617,0.4168276537771421,0.07717234622285787,0.4502054492144901,1698.6911362209012,6866.131043215058
3.7814461538461543,1110.5506860616497,1108.3883213135246,0.8101927978819089,0.41901919650185343,0.0749808034981466,0.4553082827038659,1685.897947195448,6885.154654069214
3.802810256410257,1120.2605731584974,1118.0829672717841,0.8299447834268303,0.4211245845414743,0.0728754154585257,0.4603491916507354,1673.3644658535293,6904.390311650801
3.8241743589743593,1129.9049158120918,1127.728536493411,0.849154606673868,0.42313324743199837,0.07086675256800161,0.46529067064185187,1661.1750097251447,6923.836626505114
3.845538461538462,1139.4130766908354,1137.2543825475746,0.8676904465329573,0.4250348820004944,0.06896511799950564,0.4700953297887812,1649.4132249414156,6943.490286692847
3.8669025641025647,1148.7130062298381,1146.5881919530693,0.8854238627747629,0.4268196435872707,0.06718035641272928,0.4747265438901594,1638.1606123324368,6963.34599660904
3.888266666666667,1157.73251174316,1155.6572774165068,0.9022319542709994,0.42847834094882997,0.06552165905117002,0.4791490383832131,1627.4951579312963,6983.396452039847
3.9096307692307697,1166.400514350123,1164.389887140754,0.9179992687436174,0.43000262955888907,0.06399737044111095,0.48332938699276184,1617.4901211563715,7003.6323531361195
3.9309948717948724,1174.6482259373045,1172.7164476331075,0.9326193883508899,0.43138519853836815,0.06261480146163183,0.4872363984685724,1608.2130286890024,7024.0424546336535
3.9523589743589747,1182.4101830432203,1180.5706737590872,0.9459961239612383,0.4326199478272562,0.061380052172743796,0.49084137150349355,1599.7249166555673,7044.613650659915
3.9737230769230774,1189.6250708722837,1187.8904810131664,0.9580442534556507,0.43370215476710083,0.06029784523289917,0.4941181952698506,1592.0798621429556,7065.331089443593
4.005769230769231,1199.2991000398627,1197.7443551036597,0.9734663044159035,0.4350329418892249,0.05896705811077507,0.4983671285283488,1582.293909863634,7096.645043022417
4.037815384615385,1207.444700977307,1206.096432353275,0.9855289009943214,0.43601037497836576,0.05798962502163428,0.5017539603573626,1574.6396753662032,7128.18912635907
4.059179487179487,1211.950147552282,1210.7556591594487,0.9916216306922621,0.4364686637780204,0.0575313362219796,0.5035000299894651,1570.7735772558729,7149.313098306308
4.08054358974359,1215.6639148493966,1214.6393060905386,0.996102123556359,0.43677816683312626,0.057221833166873765,0.5048115757438507,1567.9305125124806,7170.487811743127
4.091225641025641,1217.208526422775,1216.2767908217384,0.9977217689015447,0.4368798871933848,0.05712011280661524,0.5052958454159948,1566.9027781275884,7181.087168335061
4.101907692307693,1218.5348303295896,1217.7032030838564,0.9989165038485,0.43694853809452916,0.05705146190547085,0.5056594513495704,1566.144667600819,7191.69061347605
4.1072487179487185,1219.1131020449802,1218.3350057781647,0.9993510636606632,0.4369712566564194,0.057028743343580615,0.5057939571573036,1565.8689207760094,7196.992916332543
4.112589743589744,1219.6328623355482,1218.911205768568,0.9996748992383666,0.43698683753620504,0.05701316246379494,0.5058955404586984,1565.6634332232888,7202.295081529918
4.117930769230769,1220.0925753697272,1219.430816298189,0.9998865564611358,0.43699594406283,0.05700405593716999,0.5059630118219167,1565.5291276444182,7207.596703839468
4.1206012820512825,1220.2995728118535,1219.6691895164292,0.9999503191536062,0.43699836867819164,0.05700163132180834,0.5059836566410691,1565.4886674833588,7210.247182392163
4.123271794871795,1220.4914987486127,1219.8933383944707,0.9999869494107635,0.43699961737343684,0.057000382626563144,0.5059956608259327,1565.4654240153243,7212.897370134592
4.12445868945869,1220.5721759366306,1219.9884832838945,0.999995146879375,0.4369998667299685,0.057000133270031506,0.5059983773254211,1565.4602223701704,7214.075124812288
4.125645584045585,1220.6502875545114,1220.0809775202354,0.9999991012974992,0.43699997730338,0.057000022696620016,0.505999697466216,1565.4577131223953,7215.252808055488
4.126041215574549,1220.6758242523365,1220.111243602229,0.9999996521353579,0.4369999915549677,0.057000008445032294,0.5059998825085636,1565.4573635921668,7215.645352625588
4.126436847103514,1220.7011513491575,1220.1412397272286,0.9999999206915189,0.436999998228635,0.05700000177136497,0.5059999729989044,1565.457193181773,7216.037888743492
4.12683247863248,1220.7263052238877,1220.170976491921,0.9999999971694334,0.4370000000495372,0.05699999995046283,0.5059999988478227,1565.4571446532586,7216.430416313155
4.126931386514721,1220.7325720486995,1220.1783716659288,0.9999999996975777,0.43700000010725504,0.056999999892744964,0.5059999997047909,1565.4571430490428,7216.528546860607
4.1270302943969615,1220.7388319945767,1220.1857517063345,0.9999999999910306,0.43700000011364387,0.05699999988635612,0.5059999998045738,1565.4571428628342,7216.626676868087
4.127129202279203,1220.7450858908119,1220.1931168486349,1.000000000078809,0.43700000011535434,0.05699999988464564,0.5059999998346216,1565.4571428071351,7216.724806334808
4.127228110161444,1220.7513338643341,1220.2004672232035,1.0000000001665872,0.4370000001170648,0.05699999988293519,0.5059999998646696,1565.457142751436,7216.822935260034
4.127425925925927,1220.763812173687,1220.2151241289428,1.0000000001918299,0.43700000011705226,0.056999999882947745,0.5059999998738149,1565.4571427354185,7217.019191483117
4.1276237416904085,1220.776267353832,1220.2297233605125,1.0000000002170726,0.43700000011703954,0.05699999988296046,0.5059999998829604,1565.457142719401,7217.215445531604
4.128019373219374,1220.8011097715237,1220.2587524402584,1.0000000002170726,0.4370000001158617,0.056999999884138286,0.5059999998841382,1565.457142719401,7217.60794708238
4.128415004748339,1220.8258640087568,1220.2875616074475,1.0000000002170726,0.43700000011468326,0.05699999988531674,0.5059999998853167,1565.457142719401,7218.000439868466
4.128810636277303,1220.8505328471965,1220.3161577797598,1.0000000002170726,0.4370000001135042,0.05699999988649582,0.5059999998864958,1565.457142719401,7218.392923847409
4.129206267806268,1220.8751189811499,1220.3445476575987,1.0000000002170726,0.4370000001123245,0.05699999988767551,0.5059999998876755,1565.457142719401,7218.785398978154
4.129601899335233,1220.899625020311,1220.372737730921,1.0000000002170726,0.4370000001111442,0.056999999888855825,0.5059999998888558,1565.457142719401,7219.177865220997
4.129997530864198,1220.9240534924206,1220.4007342858486,1.0000000002170726,0.43700000010996326,0.05699999989003675,0.5059999998900367,1565.457142719401,7219.570322537543
4.130393162393163,1220.9484068458391,1220.4285434110757,1.0000000002170726,0.4370000001087817,0.056999999891218296,0.5059999998912182,1565.457142719401,7219.9627708906655
4.13098660968661,1220.9848011955778,1220.4699185180941,1.0000000002170726,0.43700000010700824,0.056999999892991766,0.5059999998929917,1565.457142719401,7220.551426535738
4.131580056980057,1221.0210395386605,1220.510904262925,1.0000000002170726,0.4370000001052334,0.05699999989476661,0.5059999998947666,1565.457142719401,7221.1400618164525
4.132173504273505,1221.0571292076636,1220.551518880309,1.0000000002170726,0.4370000001034572,0.05699999989654283,0.5059999998965429,1565.457142719401,7221.728676622386
4.1327669515669525,1221.0930771925164,1220.591779752801,1.0000000002170726,0.4370000001016796,0.056999999898320414,0.5059999998983205,1565.457142719401,7222.317270848588
4.1333603988603995,1221.1288901565194,1220.6317034506174,1.0000000002170726,0.43700000009990064,0.05699999990009937,0.5059999999000994,1565.457142719401,7222.905844395327
4.1339538461538465,1221.164574451614,1220.6713057696186,1.0000000002170726,0.4370000000981203,0.05699999990187969,0.5059999999018797,1565.457142719401,7223.4943971678495
4.134547293447294,1221.200136132938,1220.710601767515,1.0000000002170726,0.43700000009633866,0.05699999990366137,0.5059999999036614,1565.457142719401,7224.082929076143
4.1351407407407414,1221.235580972699,1220.7496057983774,1.0000000002170726,0.4370000000945556,0.0569999999054444,0.5059999999054444,1565.457142719401,7224.671440034712
4.1357341880341885,1221.2709144734008,1220.7883315455322,1.0000000002170726,0.43700000009277123,0.056999999907228795,0.5059999999072288,1565.457142719401,7225.2599299623735
4.1363276353276355,1221.306141880449,1220.8267920529202,1.0000000002170726,0.43700000009098544,0.05699999990901453,0.5059999999090146,1565.457142719401,7225.848398782048
4.1369210826210825,1221.3412681941695,1220.8649997549862,1.0000000002170726,0.43700000008919837,0.056999999910801624,0.5059999999108016,1565.457142719401,7226.436846420574
4.13751452991453,1221.376298181262,1220.90296650517,1.0000000002170726,0.4370000000874099,0.05699999991259006,0.50599999991259,1565.457142719401,7227.025272808519
4.137910161443495,1221.3996002439994,1220.92814941187,1.0000000002170726,0.4370000000862169,0.05699999991378311,0.5059999999137831,1565.457142719401,7227.417545228597
4.13830579297246,1221.4228628123578,1220.9532334783855,1.0000000002170726,0.43700000008502327,0.05699999991497674,0.5059999999149768,1565.457142719401,7227.809808155951
4.138701424501425,1221.4460871392632,1220.9782218203657,1.0000000002170726,0.437000000083829,0.056999999916170975,0.505999999916171,1565.457142719401,7228.202061572552
4.139097056030391,1221.4692744383076,1221.0031174556402,1.0000000002170726,0.4370000000826342,0.056999999917365804,0.5059999999173658,1565.457142719401,7228.594305461004
4.139492687559356,1221.4924258849842,1221.0279233072933,1.0000000002170726,0.43700000008143874,0.05699999991856123,0.5059999999185613,1565.457142719401,7228.986539804514
4.13988831908832,1221.515542617883,1221.0526422066382,1.0000000002170726,0.43700000008024276,0.05699999991975725,0.5059999999197573,1565.457142719401,7229.378764586883
4.140283950617285,1221.538625739851,1221.0772768960999,1.0000000002170726,0.43700000007904616,0.056999999920953864,0.5059999999209539,1565.457142719401,7229.770979792479
4.14067958214625,1221.5616763191142,1221.1018300320065,1.0000000002170726,0.43700000007784895,0.05699999992215107,0.5059999999221511,1565.457142719401,7230.163185406227
4.141075213675215,1221.5846953903638,1221.1263041872937,1.0000000002170726,0.43700000007665113,0.05699999992334888,0.5059999999233489,1565.457142719401,7230.555381413583
4.1414708452041795,1221.6076839558104,1221.150701854123,1.0000000002170726,0.4370000000754527,0.056999999924547275,0.5059999999245473,1565.457142719401,7230.947567800522
4.141866476733144,1221.6306429862038,1221.175025446419,1.0000000002170726,0.4370000000742537,0.05699999992574627,0.5059999999257463,1565.457142719401,7231.339744553523
4.142262108262109,1221.653573421821,1221.1992773023264,1.0000000002170726,0.4370000000730542,0.05699999992694585,0.5059999999269459,1565.457142719401,7231.731911659552
4.142657739791074,1221.6764761734216,1221.2234596865894,1.0000000002170726,0.43700000007185397,0.05699999992814602,0.505999999928146,1565.457142719401,7232.124069106043
4.143053371320039,1221.6993521231768,1221.2475747928568,1.0000000002170726,0.4370000000706532,0.05699999992934679,0.5059999999293467,1565.457142719401,7232.516216880887
4.143449002849003,1221.7222021255666,1221.2716247459148,1.0000000002170726,0.43700000006945183,0.05699999993054815,0.5059999999305481,1565.457142719401,7232.90835497242
4.1438446343779685,1221.7450270082475,1221.295611603849,1.0000000002170726,0.4370000000682499,0.056999999931750096,0.5059999999317502,1565.457142719401,7233.300483369403
4.144108388730611,1221.7602300382428,1221.3115687766583,1.0000000002170726,0.43700000006744827,0.056999999932551726,0.5059999999325517,1565.457142719401,7233.5618969095
4.144372143083255,1221.7754224920295,1221.3274993695968,1.0000000002170726,0.4370000000666464,0.05699999993335362,0.5059999999333537,1565.457142719401,7233.823306132984
4.144635897435898,1221.79060459603,1221.3434039456931,1.0000000002170726,0.4370000000658442,0.05699999993415577,0.5059999999341558,1565.457142719401,7234.08471103682
4.145229344729345,1221.8247276292016,1221.3790969540207,1.0000000002170726,0.43700000006403844,0.056999999935961575,0.5059999999359616,1565.457142719401,7234.672856261571
4.145822792022792,1221.8588018203882,1221.4146670890757,1.0000000002170726,0.4370000000622313,0.056999999937768706,0.5059999999377687,1565.457142719401,7235.260979571003
4.147009686609688,1221.9268128707413,1221.4854616011835,1.0000000002170726,0.43700000005861306,0.05699999994138696,0.505999999941387,1565.457142719401,7236.437160323771
4.148196581196582,1221.9946550794582,1221.5558305809107,1.0000000002170726,0.4370000000549895,0.05699999994501051,0.5059999999450105,1565.457142719401,7237.613253071664
4.151757264957265,1222.1973190752888,1221.764758358919,1.0000000002170726,0.437000000044087,0.05699999995591298,0.5059999999559129,1565.457142719401,7241.141001416673
4.15294415954416,1222.2646297020601,1221.8337827433484,1.0000000002170726,0.43700000004044226,0.056999999959557734,0.5059999999595577,1565.457142719401,7242.31674038138
4.153537606837607,1222.2982456813722,1221.8681949931615,1.0000000002170726,0.4370000000386179,0.056999999961382095,0.5059999999613821,1565.457142719401,7242.90457657537
4.154131054131054,1222.3318371233947,1221.9025448056316,1.0000000002170726,0.43700000003679224,0.05699999996320778,0.5059999999632078,1565.457142719401,7243.492390559048
4.155317948717949,1222.39895110181,1221.9710688208916,1.0000000002170726,0.4370000000331369,0.05699999996686313,0.5059999999668632,1565.457142719401,7244.667951846834
4.157098290598291,1222.4994660480745,1222.0734562079915,1.0000000002170726,0.4370000000276439,0.05699999997235609,0.5059999999723561,1565.457142719401,7246.43112691958
4.158878632478633,1222.599817127926,1222.175423315943,1.0000000002170726,0.437000000022139,0.056999999977860975,0.5059999999778609,1565.457142719401,7248.194101547409
4.160658974358975,1222.7000273920364,1222.2770274611219,1.0000000002170726,0.4370000000166222,0.0569999999833778,0.5059999999833777,1565.457142719401,7249.95687554068
4.1624393162393165,1222.8001168102314,1222.3783182990583,1.0000000002170726,0.43700000001109346,0.05699999998890656,0.5059999999889065,1565.457142719401,7251.719448758701
4.164219658119658,1222.900102683344,1222.4793388485812,1.0000000002170726,0.4370000000055527,0.0569999999944473,0.5059999999944473,1565.457142719401,7253.481821103157
4.166,1223.0,1222.5801263790213,1.0000000002170726,0.437,0.05700000000000001,0.506,1565.457142719401,7255.243992512411
