z,T,t,fs,x,y,w,rhob,p
0.0,556.2446428428273,298.0,0.0,0.22647902084890542,0.2675209791510946,0.3547195303683881,2200.0,2040.0
0.0019503745318352062,574.2455886075207,339.4645191518071,3.9002820349681484e-07,0.2264791619616745,0.2675208380383255,0.3547195303683881,2199.9997525103895,2044.0348956537596
0.0039007490636704125,590.5336210485734,376.7123126039335,1.5026842564686806e-06,0.22647956452224646,0.2675204354777535,0.3547195303683881,2199.9990464824386,2048.263227397614
0.007801498127340825,618.7249170358872,440.60230538890926,8.143668323781895e-06,0.22648196723990338,0.2675180327600966,0.3547195303683881,2199.994832493434,2057.2317258132084
0.011702247191011237,642.0751705445105,492.99247024136355,2.4374981477843396e-05,0.22648783975251816,0.2675121602474818,0.3547195303683881,2199.9845330296102,2066.7821285544655
0.01560299625468165,661.5291829828244,536.2903035877257,5.3501182328551564e-05,0.22649837765418349,0.26750162234581654,0.3547195303683881,2199.966051206905,2076.810655269465
0.023404494382022474,691.4960420840453,602.3784273153841,0.00015610341772657132,0.22653549929159886,0.26746450070840116,0.3547195303683881,2199.900945691306,2097.9673561732866
0.0312059925093633,712.7792691693456,648.8631676147777,0.0003171195948568501,0.22659375517776206,0.26740624482223796,0.3547195303683881,2199.7987740262233,2120.1585566897297
0.039007490636704126,728.0474435094551,681.9582151996755,0.0005292955171216662,0.22667052073383429,0.2673294792661657,0.3547195303683881,2199.6641393102927,2143.0012703468133
0.04680898876404495,739.0828194275849,705.7208849345751,0.0007835963877198836,0.22676252715724346,0.26723747284275656,0.35471953036838816,2199.5027745092893,2166.2254398585624
0.05461048689138577,747.1073087404642,722.8893464506016,0.0010717477056073337,0.22686678072152383,0.2671332192784762,0.35471953036838816,2199.319930148748,2189.64091134171
0.0624119850187266,752.9740898193239,735.3542292935547,0.0013869240658788233,0.22698081198529219,0.26701918801470786,0.35471953036838816,2199.119937240597,2213.1142120229497
0.07021348314606742,757.2865816568038,744.4420596998189,0.0017237526892932558,0.22710267706923504,0.26689732293076496,0.35471953036838816,2198.906205043528,2236.5521568128866
0.07801498127340824,760.4754539348964,751.0941807413996,0.002078104125128065,0.2272308819320983,0.2667691180679017,0.35471953036838816,2198.681353871001,2259.890230748983
0.08581647940074907,762.8500673828637,755.9839904623263,0.0024468464612166785,0.22736429344352274,0.2666357065564772,0.35471953036838816,2198.44737105551,2283.0843296709795
0.0936179775280899,764.6336571677443,759.5959648717538,0.0028276229897339473,0.22750205894320277,0.26649794105679725,0.35471953036838816,2198.2057520291714,2306.104874088215
0.10141947565543072,765.9878262788131,762.2800674548342,0.00321866896414969,0.2276435399432871,0.26635646005671293,0.3547195303683882,2197.9576165992917,2328.932607032082
0.10922097378277155,767.0298218852813,764.2898113113822,0.0036186670091146594,0.2277882598154657,0.2662117401845343,0.3547195303683882,2197.7038006969874,2351.5555907013722
0.11702247191011238,767.8448392623126,765.8092005507011,0.004026635659025143,0.22793586346406128,0.26606413653593874,0.3547195303683882,2197.4449271042486,2373.967058602659
0.1248239700374532,768.4948463353779,766.9719656372112,0.004441844597648662,0.2280860866596028,0.26591391334039716,0.35471953036838827,2197.1814592380233,2396.163879311763
0.13262546816479404,769.0249450855273,767.8753835750007,0.004863750748390034,0.22823873291619146,0.2657612670838086,0.35471953036838827,2196.913741703686,2418.1454580737636
0.14042696629213486,769.4679740990209,768.5902526280998,0.005291950355246444,0.22839365615432033,0.2656063438456797,0.35471953036838827,2196.642030701724,2439.912952112204
0.1521292134831461,770.019733446938,769.4178078576092,0.005945415001964512,0.22863008061023127,0.2653699193897687,0.3547195303683883,2196.2273793777536,2472.168150525735
0.16383146067415733,770.483038756919,770.0526976024062,0.006611672381640137,0.22887113349546015,0.26512886650453993,0.3547195303683883,2195.8046105164617,2503.95810692017
0.17553370786516856,770.892153845756,770.5687425440816,0.00729026620301809,0.22911664972316972,0.2648833502768303,0.3547195303683884,2195.3740136542046,2535.2959098745355
0.1872359550561798,771.2683603592936,771.0117886600763,0.007980902335384015,0.22936652287644146,0.26463347712355856,0.3547195303683884,2194.935775429527,2566.1955522444214
0.21064044943820226,771.9698392037353,771.78183008625,0.009397608436851905,0.22987908919645197,0.26412091080354805,0.3547195303683885,2194.03681469217,2626.736936524612
0.23404494382022473,772.6437636116698,772.4840573251449,0.010860938740487656,0.23040852422035515,0.2635914757796448,0.35471953036838855,2193.1082689003574,2685.6921938449036
0.2574494382022472,773.3116857258015,773.1648676357742,0.012370543024406808,0.2309547012373658,0.2630452987626341,0.3547195303683886,2192.150360284884,2743.163321635874
0.2808539325842697,773.9818900755863,773.8420680705154,0.013926294670910328,0.23151757443701698,0.262482425562983,0.3547195303683887,2191.1631691901075,2799.2430880181632
0.3042584269662922,774.6575714018876,774.522492970779,0.015528179088395214,0.23209713854004563,0.2619028614599544,0.35471953036838877,2190.1467048750237,2854.0154333636324
0.32766292134831465,775.3399796912397,775.2087801823309,0.01717624755688634,0.23269341209963895,0.261306587900361,0.3547195303683889,2189.1009348002603,2907.556339783313
0.3510674157303371,776.029625832764,775.9019692378128,0.018870597364342087,0.23330643031472126,0.26069356968527874,0.354719530368389,2188.025797232438,2959.9347555679633
0.3744719101123596,776.7267422637707,776.6024943325693,0.0206113625706747,0.23393624168836308,0.2600637583116369,0.35471953036838905,2186.921207104797,3011.213444100548
0.39787640449438205,777.4314583450408,777.3105625489821,0.02239870914411308,0.23458290626811001,0.25941709373189,0.35471953036838916,2185.787059103382,3061.4497267994802
0.4212808988764045,778.1438668671517,778.0262974170191,0.024232831968962577,0.23524649456338614,0.25875350543661385,0.3547195303683893,2184.623229565752,3110.6961229791636
0.4368838951310862,778.6231197576698,778.5077602767224,0.02548167574149944,0.23569832804959334,0.25830167195040665,0.3547195303683894,2183.830784670201,3143.0011123170107
0.4524868913857678,779.1058510943925,778.992697946935,0.0267514789048286,0.23615774467375478,0.2578422553262452,0.3547195303683895,2183.025040142933,3174.9010315358264
0.46808988764044945,779.5920844656664,779.4811353189057,0.028042318165793733,0.2366247721885176,0.25737522781148237,0.35471953036838955,2182.205947310168,3206.4085397777194
0.4836928838951311,780.0818438815635,779.9730973541876,0.029354274826498297,0.23709944000910077,0.2569005599908992,0.35471953036838966,2181.373454582237,3237.5356549052344
0.4992958801498128,780.5751538998345,780.4686093684728,0.030687434628122554,0.23758177915678738,0.25641822084321264,0.35471953036838977,2180.527507552686,3268.293798683891
0.5148988764044944,781.0720396881036,780.9676971763643,0.03204188760736358,0.23807182220698492,0.2559281777930151,0.3547195303683898,2179.668049089373,3298.6938379464486
0.530501872659176,781.5725270534581,781.4703871643898,0.03341772796390644,0.2385696032412759,0.25543039675872403,0.35471953036838993,2178.79501941856,3328.746122165771
0.5461048689138578,782.076642455591,781.9767063271958,0.034815053937687454,0.2390751578030117,0.2549248421969883,0.35471953036839005,2177.908356202797,3358.460517811508
0.5617078651685394,782.5844130118669,782.4866822850407,0.03623396769493744,0.23958852285608254,0.2544114771439175,0.35471953036839016,2177.0079946132328,3387.8464398207934
0.5773108614232211,783.0958664986233,783.0003432919522,0.037674575222146206,0.24010973674655403,0.25389026325344594,0.35471953036839027,2176.093867396896,3416.9128804740844
0.5929138576779027,783.6110313509535,783.5177182393833,0.03913698622720205,0.24063883916689907,0.25336116083310095,0.3547195303683904,2175.1659049394307,3445.6684359332758
0.6085168539325844,784.1299366621313,784.0388366578678,0.04062131404704605,0.2411758711225872,0.2528241288774128,0.3547195303683905,2174.22403532369,3474.121330669686
0.624119850187266,784.6526121833164,784.563728717956,0.042127675561250806,0.24172087490081703,0.2522791250991829,0.35471953036839066,2173.268184384577,3502.2794399838226
0.6397228464419477,785.1790883239235,785.0924252311155,0.043656191110990894,0.24227389404119998,0.2517261059588,0.35471953036839077,2172.298275760457,3530.1503107963717
0.6553258426966293,785.7093961529503,785.624957650972,0.045206984422922925,0.24283497330821963,0.25116502669178037,0.35471953036839093,2171.314230941466,3557.7411808702723
0.670928838951311,786.2435674015716,786.1613580751342,0.04678018253753586,0.24340415866530887,0.2505958413346911,0.35471953036839105,2170.315969314968,3585.058996606547
0.6865318352059925,786.7816344673834,786.7016592478066,0.048375915741571525,0.24398149725039975,0.2500185027496003,0.3547195303683912,2169.303408208441,3612.110429541504
0.7021348314606742,787.3236304208598,787.2458945634158,0.04999431750414933,0.24456703735281296,0.24943296264718706,0.3547195303683914,2168.27646293001,3638.901891659639
0.7177378277153559,787.8695890148414,787.7940980715548,0.05163552441626096,0.24516082839136716,0.24883917160863284,0.35471953036839154,2167.235046806836,3665.4395496249426
0.7333408239700375,788.419544698289,788.3463044836741,0.05329967613333043,0.24576292089359722,0.2482370791064028,0.3547195303683917,2166.1790712215675,3691.729338022961
0.7489438202247192,788.9735326361599,788.9025491821614,0.054986915320562456,0.2463733664759808,0.2476266335240192,0.3547195303683919,2165.108445647018,3717.7769716969246
0.7645468164794008,789.5315887382084,789.4628682327595,0.056697387600830124,0.24699221782508432,0.24700778217491567,0.35471953036839204,2164.023077679233,3743.587957253205
0.7801498127340825,790.0937497009553,790.0272984017406,0.058431241504882006,0.2476195286795479,0.2463804713204521,0.3547195303683922,2162.922873069088,3769.167603804313
0.7957528089887641,790.6600530692773,790.5958771799627,0.06018862842368116,0.24825535381284128,0.24574464618715872,0.3547195303683924,2161.807735752527,3794.5210330114633
0.8113558052434456,791.2305373274465,791.1686428169966,0.06196970256272676,0.24889974901673745,0.24510025098326257,0.3547195303683926,2160.6775678795543,3819.653188483336
0.8269588014981274,791.80524203467,791.7456343701276,0.0637746208982588,0.24955277108546745,0.24444722891453255,0.3547195303683928,2159.5322698420164,3844.5688445831256
0.842561797752809,792.3842080282566,792.3268917754822,0.0656035431353117,0.2502144778005441,0.2437855221994559,0.354719530368393,2158.3717403002247,3869.2726146921505
0.8581647940074907,792.9674777300886,792.9124559522875,0.06745663166767717,0.2508849279162766,0.24311507208372338,0.3547195303683932,2157.1958762083586,3893.7689589755323
0.8737677902621724,793.5550956116751,793.5023689570095,0.0693340515399725,0.25156418114604656,0.24243581885395343,0.3547195303683935,2156.004572838536,3918.0621916936484
0.889370786516854,794.1471089037701,794.096674212986,0.07123597041221405,0.25225229814949074,0.24174770185050928,0.3547195303683937,2154.7977238032895,3942.1564881027807
0.9049737827715356,794.743568684818,794.6954168549064,0.07316255852760543,0.2529493405208469,0.2410506594791531,0.35471953036839393,2153.5752210760115,3966.05589099007
0.9205767790262173,795.3445315586806,795.2986442488992,0.07511398868472377,0.2536553707788906,0.2403446292211094,0.3547195303683942,2152.336955008599,3989.7643168924033
0.9361797752808989,795.9500622526008,795.9064067826226,0.07709043621602492,0.25437045235915834,0.23962954764084166,0.35471953036839443,2151.0828143450944,4013.2855620577775
0.9517827715355806,796.5602376572965,796.5187590729943,0.07909207897574003,0.2550946496095687,0.23890535039043126,0.3547195303683947,2149.812686229365,4036.6233082231392
0.9673857677902623,797.1751531336356,797.1357618245,0.0811190973420567,0.2558280277912112,0.23817197220878875,0.354719530368395,2148.526456203722,4059.7811283085052
0.982988764044944,797.7949323886754,797.7574847096691,0.08317167424138061,0.2565706530871245,0.23742934691287546,0.35471953036839526,2147.2240081935192,4082.762492168884
0.9985917602996256,798.4197429753235,798.3840108731827,0.0852499952071642,0.25732259262358054,0.23667740737641949,0.3547195303683956,2145.905224469831,4105.57077261222
1.0141947565543072,799.0498206355165,799.0154440521178,0.08735424849349116,0.25808391451117935,0.23591608548882065,0.3547195303683959,2144.569985577373,4128.209251996621
1.0297977528089888,799.6855074717798,799.6519199915107,0.0894846252765263,0.25885468791773447,0.2351453120822655,0.3547195303683962,2143.218170206675,4150.681129883504
1.0454007490636705,800.3273114867849,800.2936250837419,0.09164131999920468,0.25963498319298156,0.23436501680701852,0.35471953036839654,2141.849654975362,4172.989532471676
1.061003745318352,800.975998413225,800.9408275088898,0.09382453095411276,0.26042487207946546,0.23357512792053453,0.3547195303683969,2140.464314058289,4195.137524901545
1.068805243445693,801.3032657565344,801.2666091605428,0.09492614327074608,0.2608234370116203,0.23317656298837977,0.3547195303683971,2139.7652938314286,4206.152312488363
1.0766067415730338,801.6327306058488,801.5939312516686,0.09603446127852514,0.26122442807254664,0.23277557192745332,0.35471953036839726,2139.0620185561497,4217.128128064174
1.0844082397003747,801.964633243492,801.9228806392015,0.09714951140117632,0.26162785482238715,0.23237214517761284,0.35471953036839743,2138.3544714654654,4228.065346144184
1.0922097378277156,802.2992679572266,802.2535679849848,0.09827132063919629,0.2620337270299606,0.23196627297003944,0.3547195303683976,2137.642635426403,4238.964341887793
1.1000112359550565,802.6369932801741,802.5861354274696,0.09939991670423123,0.26244205472138066,0.23155794527861936,0.3547195303683978,2136.926492854735,4249.825492382126
1.1078127340823973,802.9782428433871,802.9207667259851,0.10053532819777522,0.26285284824470934,0.23114715175529063,0.354719530368398,2136.206025601589,4260.64917812757
1.115614232209738,803.3235360550559,803.2577004494332,0.10167758484825411,0.26326611835573427,0.23073388164426573,0.3547195303683982,2135.4812148030032,4271.435784725731
1.1234157303370789,803.6734873244303,803.5972466533453,0.10282671782344549,0.26368187633100243,0.23031812366899757,0.35471953036839843,2134.752040681689,4282.185704748246
1.1312172284644197,804.0288119549831,803.9398070807588,0.10398276013695543,0.2641001341148844,0.22989986588511557,0.3547195303683986,2134.0184822890956,4292.899339731685
1.1390187265917604,804.390326235475,804.2858980705149,0.10514574716637906,0.2645209045070454,0.22947909549295467,0.3547195303683988,2133.2805171766254,4303.577102198854
1.1468202247191013,804.758938849408,804.6361739311782,0.10631571729423557,0.2649442013943363,0.22905579860566375,0.35471953036839904,2132.5381209889233,4314.219417552123
1.1546217228464422,805.1356307907438,804.9914465766611,0.10749271266781486,0.26537004002570774,0.22862995997429228,0.35471953036839926,2131.7912669817288,4324.826725627323
1.1624232209737828,805.5214218451973,805.3526951130849,0.10867678004854052,0.2657984373195106,0.22820156268048944,0.3547195303683995,2131.039925482913,4335.399481650888
1.1702247191011237,805.9173235955805,805.7210576970568,0.10986797168612997,0.2662294121797682,0.2277705878202318,0.3547195303683997,2130.2840633377928,4345.93815632755
1.1780262172284646,806.3242817424422,806.0977985958675,0.11106634611382722,0.26666298578389314,0.22733701421610683,0.3547195303683999,2129.523643404515,4356.443234821012
1.1858277153558054,806.7431137135943,806.4842470030839,0.11227196873053744,0.26709918179330405,0.22690081820669594,0.35471953036840015,2128.758624184671,4366.915214488602
1.1936292134831463,807.1744500367809,806.881710733043,0.1134849120293387,0.26753802643610153,0.22646197356389844,0.35471953036840037,2127.9889596782973,4377.354601387165
1.201430711610487,807.6186886587235,807.2913756598691,0.11470525536142136,0.2679795484216613,0.22602045157833872,0.35471953036840065,2127.2145995336623,4387.761905754026
1.2092322097378279,808.075969699956,807.7142076120734,0.11593308419001047,0.2684237786707019,0.22557622132929808,0.35471953036840087,2126.4354895206875,4398.1376368375
1.2170337078651687,808.5461743573925,808.150874573654,0.11716848887492644,0.2688707498755374,0.2251292501244626,0.35471953036840115,2125.6515723021935,4408.482297559062
1.2248352059925096,809.0289469949571,808.6017026600182,0.11841156310946896,0.2693204959345393,0.22467950406546078,0.35471953036840137,2124.8627884257658,4418.796379504535
1.2326367041198505,809.5237353937827,809.0666711709418,0.11966240218277371,0.26977305132345486,0.2242269486765452,0.35471953036840165,2124.069077426365,4429.080358664572
1.2404382022471911,810.029841772756,809.5454433098604,0.12092110125018372,0.2702284504696251,0.2237715495303749,0.3547195303684019,2123.270378923848,4439.334692203416
1.2482397003745318,810.5464768525186,810.0374228242299,0.12218775376463822,0.27068672718445885,0.22331327281554111,0.3547195303684022,2122.4666336183186,4449.559816370783
1.2560411985018727,811.0728105114945,810.5418242182815,0.12346245016802547,0.27114791418996237,0.22285208581003763,0.3547195303684025,2121.6577841205235,4459.756145523094
1.2638426966292136,811.6080147021926,811.0577449862527,0.12474527688040705,0.2716120427530391,0.22238795724696092,0.3547195303684028,2120.8437755932296,4469.924072111934
1.2716441947565544,812.1512965173811,811.584231206298,0.12603631557078593,0.2720791424216526,0.22192085757834742,0.3547195303684031,2120.024556213955,4480.063967437052
1.2794456928838953,812.7019211261421,812.1203313903433,0.127335642652715,0.27254924084233695,0.22145075915766302,0.3547195303684034,2119.2000774950243,4490.176182943674
1.287247191011236,813.2592255358438,812.665136670493,0.12864332892232003,0.2730223636292332,0.2209776363707668,0.3547195303684037,2118.3702945132627,4500.261051857522
1.2950486891385768,813.8226247906268,813.2178077198579,0.12995943924196746,0.2734985342496394,0.22050146575036064,0.35471953036840403,2117.5351661107184,4510.31889098282
1.3028501872659177,814.3916124163432,813.7775901791978,0.13128403216477197,0.27397777388815725,0.2200222261118428,0.35471953036840437,2116.6946551329306,4520.350002527643
1.3106516853932586,814.9657568224837,814.3438209516501,0.13261715938815025,0.27446010124898695,0.21953989875101299,0.3547195303684047,2115.8487287756734,4530.354675859709
1.3184531835205995,815.5446951116264,814.9159277772786,0.1339588649138917,0.27494553225203977,0.21905446774796014,0.3547195303684051,2114.9973591179246,4540.333189129418
1.3262546816479401,816.128125427226,815.4934242342829,0.1353091837735338,0.27543407957177674,0.2185659204282232,0.3547195303684054,2114.140523930674,4550.285810724004
1.334056179775281,816.7157986541165,816.0759019071735,0.13666814014722717,0.2759257519566114,0.21807424804338865,0.3547195303684058,2113.278207870578,4560.212800536517
1.341857677902622,817.3075100053989,816.6630210266294,0.13803574465754925,0.2764205532498075,0.21757944675019253,0.3547195303684062,2112.410404197157,4570.114411046821
1.3496591760299625,817.9030907959138,817.2545004834819,0.1394119905519253,0.2769184810082738,0.21708151899172623,0.3547195303684066,2111.537117195209,4579.990888219918
1.3574606741573034,818.5024005148272,817.8501077771923,0.1407968483922261,0.27741952458125246,0.21658047541874753,0.354719530368407,2110.6583655444874,4589.842472230602
1.3652621722846443,819.1053191597423,818.4496491818152,0.14219025873990612,0.27792366246379174,0.2160763375362083,0.35471953036840737,2109.774186961298,4599.669398023955
1.373063670411985,819.7117396709474,819.0529601919719,0.14359212215012193,0.27843085867660294,0.21556914132339697,0.3547195303684078,2108.884644547655,4609.471895718958
1.3808651685393258,820.321560195103,819.6598961343511,0.14500228555763503,0.27894105784046136,0.21505894215953864,0.35471953036840825,2107.989835430014,4619.250190858126
1.3886666666666667,820.9346758019127,820.2703226818043,0.14642052384008564,0.27945417850577087,0.21454582149422916,0.3547195303684087,2107.0899024581577,4629.004504499817
1.3964681647940076,821.5509691662584,820.8841058734201,0.14784651497332563,0.2799701041637281,0.21402989583627186,0.35471953036840914,2106.1850499702114,4638.735053141713
1.4042696629213485,822.1702996070567,821.5011011146186,0.1492798067534524,0.28048867120630605,0.21351132879369397,0.3547195303684096,2105.2755649089304,4648.442048453829
1.4120711610486891,822.7924897452903,822.1211405019023,0.15071977258236288,0.28100965292940316,0.2129903470705968,0.3547195303684101,2104.361844877666,4658.125696787179
1.41987265917603,823.4173089235805,822.7440176938521,0.15216555338382104,0.28153273851799265,0.21246726148200734,0.3547195303684106,2103.444434997106,4667.78619840994
1.4276741573033709,824.0444524593985,823.3694694584597,0.1536159825214267,0.28205750588133477,0.21194249411866528,0.3547195303684111,2102.5240755480468,4677.423746407158
1.4354756554307118,824.6735158663322,823.9971530240293,0.15506949098439943,0.2825833873490559,0.21141661265094414,0.35471953036841164,2101.6017621350707,4687.03852516448
1.4432771535580526,825.3039635192524,824.6266185533482,0.1565239917033286,0.2831096278164196,0.21089037218358042,0.35471953036841214,2100.6788190931647,4696.630708344661
1.4510786516853933,825.9350920886991,825.2572766230815,0.15797674558666108,0.2836352362761336,0.21036476372386637,0.3547195303684127,2099.75698449331,4706.200456264971
1.4588801498127342,826.5659907284256,825.8883617661376,0.15942421890668798,0.28415893422039334,0.2098410657796067,0.3547195303684133,2098.8385006371814,4715.747912605774
1.466681647940075,827.1955027467086,826.5188951837561,0.16086195299144873,0.28467910849522365,0.20932089150477634,0.35471953036841386,2097.9261967432262,4725.2732004426625
1.474483146067416,827.8221973233286,827.1476527611005,0.16228448243522667,0.2851937817089182,0.20880621829108184,0.35471953036841447,2097.0235408456015,4734.776417716273
1.4822846441947568,828.4443639902934,827.7731481336903,0.1636853535375171,0.28570061890328424,0.20829938109671575,0.3547195303684151,2096.134628093865,4744.257632447936
1.4900861423220975,829.0600450381988,828.3936434272961,0.16505730141867792,0.28619699163434215,0.20780300836565785,0.3547195303684157,2095.264068365502,4753.71687826311
1.4978876404494383,829.6671184797106,829.0072000300022,0.16639262872584804,0.28668011498867496,0.20731988501132506,0.35471953036841636,2094.4167459607897,4763.1541510360585
1.5095898876404497,830.5569198396892,829.9100622231163,0.16831064060397663,0.28737405446496356,0.20662594553503644,0.35471953036841736,2093.199685223608,4777.268755916431
1.521292134831461,831.4160893502832,830.7861415164914,0.17010816944682094,0.2880244030045325,0.20597559699546747,0.3547195303684184,2092.059076135873,4791.333516802553
1.5329943820224723,832.240133930122,831.6301743034056,0.17177255954770887,0.28862658175437256,0.2053734182456275,0.35471953036841947,2091.0029492858553,4805.3479900779685
1.5446966292134834,833.0272020574333,832.4390547249535,0.17330155328287344,0.28917977390293387,0.20482022609706615,0.35471953036842063,2090.0327372325905,4819.311654134324
1.552498127340824,833.5316189165505,832.9583322340068,0.17424870070203038,0.28952245321139497,0.204477546788605,0.35471953036842135,2089.431731603103,4828.59227427096
1.560299625468165,834.020555360025,833.4619382784974,0.1751420806478964,0.28984567937012207,0.20415432062987796,0.35471953036842213,2088.864843739739,4837.849932617217
1.5681011235955058,834.4949606398324,833.950511750837,0.1759859047265408,0.2901509761442926,0.20384902385570733,0.35471953036842296,2088.32940119795,4847.084501170599
1.5759026217228467,834.955937518875,834.4249233347406,0.1767846676749397,0.29043996973625663,0.2035600302637434,0.3547195303684238,2087.8225518744935,4856.295871863109
1.5837041198501876,835.4046578457854,834.886189916669,0.17754286466755592,0.29071428650664716,0.2032857134933529,0.35471953036842463,2087.3414433885214,4865.4839582203385
1.5915056179775282,835.8422995954884,835.335402416285,0.17826480521558646,0.29097548564285886,0.2030245143571412,0.35471953036842546,2086.8833411704873,4874.6486956903545
1.599307116104869,836.2700036810825,835.7736695967913,0.17895450531561966,0.29122502013827567,0.20277497986172438,0.35471953036842635,2086.4456968984405,4883.790041036501
1.60710861423221,836.6888469293887,836.202077362738,0.17961563642424025,0.2914642183312091,0.2025357816687909,0.35471953036842724,2086.02618087583,4892.90797112975
1.6149101123595508,837.099827251926,836.6216614529711,0.18025151227813738,0.2916942791363942,0.20230572086360582,0.3547195303684281,2085.6226903947095,4902.002481400658
1.6227116104868917,837.5038574593606,837.033390858384,0.180865098918451,0.29191627567181255,0.2020837243281875,0.35471953036842907,2085.2333433748604,4911.073584138675
1.6305131086142324,837.901764862099,837.4381593246349,0.18145903758442372,0.29213116354164864,0.20186883645835133,0.35471953036842996,2084.8564638367866,4920.121306766422
1.6383146067415733,838.2942945087084,837.8367826320368,0.18203567365161857,0.29233979130617926,0.20166020869382076,0.35471953036843096,2084.490563539177,4929.145690170219
1.6461161048689141,838.6821145245863,838.2299997833663,0.18259708736667782,0.29254291160165324,0.20145708839834672,0.3547195303684319,2084.134322476384,4938.146787134642
1.6539176029962548,839.0658224950188,838.6184766665724,0.1831451238986208,0.2927411920128952,0.2012588079871048,0.3547195303684329,2083.786569809586,4947.1246609056325
1.6617191011235957,839.4459521961379,839.0028111417319,0.1836814213795867,0.29293522521848625,0.20106477478151377,0.3547195303684339,2083.446266073736,4956.079383891131
1.6695205992509365,839.8229802352464,839.3835388127154,0.18420743632862036,0.293125538189127,0.20087446181087298,0.35471953036843495,2083.1124870450767,4965.011036498496
1.6773220973782772,840.1973323411994,839.7611389843431,0.18472446628224834,0.29331260037541274,0.2006873996245873,0.35471953036843595,2082.7844093810727,4973.919706102042
1.685123595505618,840.5693891665786,840.1360404843002,0.18523366969902633,0.2934968309093271,0.2005031690906729,0.35471953036843706,2082.4612979901235,4982.805486130907
1.692925093632959,840.9394915426843,840.5086271572034,0.18573608333180036,0.2936786048895519,0.20032139511044808,0.3547195303684381,2082.1424950081155,4991.668475265991
1.7007265917602998,841.307945178296,840.8792429272161,0.18623263731680004,0.2938582588407226,0.2001417411592774,0.35471953036843923,2081.8274102237483,5000.508776734481
1.7163295880149814,842.0409779125052,841.615764831131,0.1872114305131692,0.2942123876372255,0.1997876123627745,0.3547195303684415,2081.2063239923723,5018.121748689848
1.7319325842696631,842.77037678609,842.3477217930363,0.1881758124440292,0.29456130241698825,0.1994386975830117,0.35471953036844384,2080.594382326587,5035.645297023007
1.7475355805243449,843.497687996025,843.0768363128387,0.18913051334049424,0.2949067145844812,0.19909328541551877,0.3547195303684462,2079.9885836920275,5053.080357022297
1.7631385767790262,844.2241887573908,843.8045234499114,0.19007945208731444,0.29525004199788446,0.19874995800211556,0.3547195303684487,2079.386441388367,5070.427893063249
1.778741573033708,844.950943799795,844.5319563361921,0.19102590384031898,0.295592469613322,0.19840753038667805,0.35471953036845133,2078.7858771888673,5087.6888899530395
1.7865430711610486,845.3147021515294,844.8958904876852,0.19149907667942845,0.29576366423203515,0.19823633576796487,0.35471953036845266,2078.485628743617,5096.287247858363
1.7943445692883895,845.6788485705537,845.2601163268871,0.1919726280170294,0.2959349957920509,0.19806500420794915,0.354719530368454,2078.1851401248514,5104.864346168424
1.7995455680399501,845.9218736566073,845.5031448329403,0.19228867870771496,0.2960493433898288,0.19795065661017122,0.3547195303684549,2077.984592416582,5110.5706630709155
1.8047465667915106,846.1651370804449,845.7463746021516,0.1926051009452449,0.2961638254137933,0.19783617458620667,0.3547195303684558,2077.7838089459156,5116.2676247179315
1.8099475655430712,846.4086630362247,845.9898317765379,0.19292196968309872,0.2962784689822219,0.19772153101777815,0.35471953036845677,2077.582742151659,5121.955268570616
1.815148564294632,846.6524751061522,846.2335415338678,0.19323935872991332,0.29639330079918624,0.1976066992008137,0.3547195303684577,2077.3813451990673,5127.633632116987
1.8203495630461923,846.8965977034826,846.4775290256592,0.1935573470138137,0.2965083494209964,0.1974916505790035,0.35471953036845866,2077.1795680048635,5133.302752871332
1.825550561797753,847.141060779262,846.7218223465155,0.19387603925302524,0.2966236527348581,0.19737634726514192,0.3547195303684596,2076.977344120845,5138.962668403087
1.8333520599250939,847.5085218377315,847.0889350092139,0.1943559055670437,0.29679726906249054,0.19720273093750942,0.35471953036846104,2076.6728483789007,5147.435364618918
1.8411535580524347,847.8774681447393,847.4572374475946,0.19484037150446365,0.2969725495405336,0.19702745045946646,0.35471953036846254,2076.365433978782,5155.8875655034035
1.8450543071161052,848.0630022429441,847.6421745133447,0.1950864777196888,0.2970615911257557,0.19693840887424427,0.3547195303684633,2076.209269037812,5160.106025332737
1.8489550561797756,848.2494093790922,847.8278024737835,0.19533571487310267,0.2971517654889506,0.19684823451104938,0.3547195303684641,2076.0511173823793,5164.319418930366
1.8509054307116108,848.34213680586,847.9204620182736,0.19545771772738332,0.2971959062983846,0.19680409370161536,0.3547195303684645,2075.973701342644,5166.424221052456
1.8518806179775285,848.3875700819494,847.9663121251685,0.1955143055817974,0.29721637986609495,0.19678362013390507,0.35471953036846465,2075.9377939238243,5167.476147575517
1.852855805243446,848.4317308328013,848.0114722508289,0.19556497361861797,0.2972347116352234,0.19676528836477658,0.3547195303684648,2075.9056428829745,5168.52775564008
1.8548061797752813,848.5158035533971,848.0993232784547,0.19564702044127125,0.29726439629452706,0.196735603705473,0.3547195303684652,2075.853580657709,5170.630005921788
1.8557813670411987,848.5564291336198,848.1423065079612,0.1956819764776896,0.2972770434391467,0.1967229565608533,0.35471953036846543,2075.8313995544854,5171.680643772239
1.8567565543071163,848.596611134915,848.1848941397025,0.1957152963445042,0.2972890986152333,0.19671090138476674,0.3547195303684656,2075.810256670997,5172.730955180549
1.8587069288389513,848.6763248382242,848.2692325456143,0.19578023679030815,0.2973125941626093,0.19668740583739064,0.354719530368466,2075.7690491749727,5174.83059718539
1.8606573033707865,848.7555827179332,848.3527058384109,0.1958447405677103,0.2973359317227251,0.19666406827727498,0.3547195303684664,2075.7281187637636,5176.928930945693
1.864558052434457,848.9132485164893,848.5175625783319,0.19597420441766128,0.29738277193120144,0.19661722806879847,0.3547195303684672,2075.6459684025185,5181.121675549403
1.8723595505617978,849.2262048463718,848.8409122213218,0.1962356518976794,0.2974773640082511,0.1965226359917489,0.35471953036846876,2075.4800687715556,5189.491498215899
1.8801610486891387,849.5372285390079,849.1585438623737,0.19650027300750447,0.2975731043091628,0.19642689569083727,0.35471953036847037,2075.3121553364667,5197.84049520866
1.8879625468164793,849.8473802080666,849.4727953625783,0.1967680185634408,0.297669975039204,0.196330024960796,0.35471953036847204,2075.1422593064153,5206.168758703846
1.8957640449438202,850.1573809561222,849.7852285615978,0.19703893158972993,0.2977679917646079,0.19623200823539208,0.3547195303684737,2074.9703533806764,5214.476393916603
1.903565543071161,850.4677197508506,850.0968886492419,0.1973130788189023,0.29786717862930057,0.1961328213706994,0.35471953036847537,2074.7963952146,5222.763514495927
1.911367041198502,850.7787301015675,850.4084776243999,0.19759053489631093,0.29796756264007895,0.19603243735992107,0.3547195303684771,2074.6203374425095,5231.030239425688
1.9191685393258429,851.090642101499,850.7204697455882,0.19787137808605054,0.29806917211300576,0.1959308278869942,0.3547195303684788,2074.442130402483,5239.2766909666025
1.9269700374531837,851.4036172074779,851.0331882302277,0.1981556886892242,0.2981720361011366,0.19582796389886342,0.3547195303684806,2074.261723140029,5247.502993296089
1.9347715355805246,851.7177713705777,851.3468561690553,0.19844354826331842,0.2982761841120881,0.19572381588791193,0.35471953036848236,2074.079063903427,5255.709271611755
1.9425730337078653,852.0331903929552,851.66163030766,0.19873503916631216,0.2983816459430964,0.19561835405690356,0.3547195303684842,2073.894100433011,5263.89565154196
1.9503745318352061,852.3499401159754,851.9776234518173,0.19903024427290936,0.2984884515783495,0.19551154842165047,0.354719530368486,2073.7067801412272,5272.06225875951
1.958176029962547,852.6680731765592,852.294919322615,0.19932924679588898,0.2985966311243514,0.1954033688756486,0.3547195303684879,2073.517050226003,5280.209218729629
1.965977528089888,852.9876334865843,852.6135824026651,0.1996321301752151,0.29870621476980197,0.19529378523019805,0.3547195303684898,2073.3248577411046,5288.336656546669
1.9737790262172288,853.3086592023304,852.9336644606315,0.1999389780118399,0.2988172327616468,0.19518276723835326,0.35471953036849174,2073.1301496381443,5296.444696829405
1.9815805243445694,853.631184692988,853.2552088738224,0.20024987403097452,0.29892971539178853,0.19507028460821146,0.3547195303684937,2072.9328727898883,5304.533463655023
1.9893820224719103,853.9552418459557,853.5782534916889,0.200564902065055,0.2990436929909241,0.19495630700907593,0.3547195303684957,2072.7329740010623,5312.603080518617
1.9971835205992512,854.2808609328058,853.9028325328201,0.20088414604950988,0.299159195927013,0.19484080407298696,0.3547195303684977,2072.530400011041,5320.653670309524
2.004985018726592,854.6080711844093,854.2289778419953,0.20120769002722472,0.29927625460689317,0.19472374539310683,0.35471953036849974,2072.32509749101,5328.68535529874
2.0127865168539327,854.9369011736255,854.5567197237242,0.20153561815895976,0.2993948994800495,0.1946051005199505,0.3547195303685018,2072.1170130373616,5336.698257133641
2.0205880149812736,855.2673790706369,854.8860874955561,0.20186801473750227,0.2995151610437345,0.19448483895626545,0.35471953036850395,2071.9060931627087,5344.692496837508
2.0283895131086145,855.5995328141636,855.2171098561286,0.20220496420469883,0.29963706984913074,0.19436293015086928,0.35471953036850606,2071.6922842850813,5352.6681948121995
2.036191011235955,855.9333902269925,855.5498151307012,0.20254655117000003,0.29976065650805983,0.1942393434919402,0.35471953036850823,2071.475532716156,5360.6254708429105
2.043992509363296,856.2689790949453,855.8842314358774,0.20289286043100896,0.2998859517004176,0.19411404829958243,0.35471953036851045,2071.255784648221,5368.564444104267
2.0517940074906367,856.606327221555,856.2203867908879,0.2032439769946134,0.30001298618181904,0.19398701381818095,0.3547195303685127,2071.032986140761,5376.485233167323
2.0595955056179776,856.9454624668858,856.5583091936992,0.2035999860992669,0.3001417907916603,0.19385820920833968,0.354719530368515,2070.8070831063246,5384.387956007129
2.0751985018726593,857.6292061998358,857.2395673301319,0.20432702418235693,0.30040483422343794,0.19359516577656208,0.35471953036851966,2070.3457462838296,5400.139671985052
2.090801498127341,858.3204352313,857.9282310757799,0.20507466211048103,0.30067533070899344,0.19332466929100658,0.35471953036852444,2069.871337976809,5415.820524225829
2.106404494382023,859.0193766886445,858.6245275182206,0.2058435925611184,0.3009535308600423,0.19304646913995768,0.3547195303685294,2069.383418651718,5431.431435908792
2.1220074906367046,859.7262602806059,859.3286861253704,0.2066345142902228,0.301239687487501,0.192760312512499,0.35471953036853454,2068.881544917956,5446.973321478006
2.137610486891386,860.4413186377157,860.0409391403039,0.20744813300231235,0.30153405591628657,0.19246594408371348,0.3547195303685398,2068.3652689757614,5462.447086917892
2.1532134831460676,861.1647876391564,860.7615219294905,0.2082851622595905,0.30183689431423794,0.19216310568576203,0.35471953036854525,2067.834138039336,5477.853630030374
2.1688164794007494,861.89690674111,861.4906733184525,0.2091463244267261,0.30214846403393897,0.19185153596606103,0.35471953036855086,2067.2876937373385,5493.193840713378
2.184419475655431,862.6379193130373,862.2286359294361,0.21003235164938497,0.3024690299667522,0.19153097003324784,0.3547195303685567,2066.725471491966,5508.468601240807
2.2000224719101125,863.3880729837363,862.9756565266364,0.21094398686179427,0.30279886090735736,0.19120113909264266,0.3547195303685627,2066.146999879612,5523.678786544232
2.215625468164794,864.147619997489,863.7319863708615,0.2118819848194049,0.30313822992737005,0.19086177007262994,0.35471953036856885,2065.5517999755957,5538.825264496513
2.231228464419476,864.9168175793869,864.4978815835109,0.21284711315086047,0.30348741475594565,0.19051258524405437,0.35471953036857523,2064.939384686644,5553.908896197638
2.2468314606741577,865.6959283088507,865.2736035191316,0.21384015342476467,0.3038466981657373,0.1901533018342627,0.35471953036858184,2064.309258073983,5568.930536262891
2.262434456928839,866.4852205000149,866.0594191454072,0.21486190222570237,0.30421636836220184,0.18978363163779816,0.35471953036858866,2063.6609146705537,5583.891033113578
2.278037453183521,867.2849685873819,866.8556014290733,0.21591317223343223,0.30459671937405347,0.1894032806259466,0.3547195303685957,2062.9938387962206,5598.791229270375
2.2936404494382026,868.0954535157796,867.6624297266783,0.2169947933017501,0.3049880514435976,0.18901194855640244,0.35471953036860304,2062.307503873184,5613.63196164937
2.3092434456928843,868.9169631331056,868.4801901787459,0.218107613531233,0.3053906714148518,0.1886093285851482,0.35471953036861054,2061.6013717452806,5628.414061860852
2.3248464419475656,869.74979258494,869.3091761062952,0.21925250033253016,0.30580489311824566,0.1881951068817543,0.35471953036861836,2060.874892003281,5643.138356510823
2.3404494382022474,870.5942447101435,870.1496884087884,0.2204303414768364,0.30623103775068367,0.18776896224931636,0.3547195303686264,2060.1275013183126,5657.8056675052285
2.356052434456929,871.4506304367029,871.0020359626857,0.22164204613065752,0.3066694342499247,0.18733056575007528,0.35471953036863474,2059.358622785264,5672.416812356839
2.3716554307116104,872.319231835919,871.8665102169504,0.22288839194819007,0.3071203639723838,0.18687963602761623,0.3547195303686434,2058.5677629492184,5686.972604095637
2.387258426966292,873.200409147213,872.7434495235478,0.2241704926995232,0.30758422988169276,0.18641577011830726,0.35471953036865234,2057.7542150753225,5701.473851602862
2.410662921348315,874.5465177455845,874.0829963353259,0.22616288193525577,0.30830507919370614,0.18569492080629385,0.3547195303686663,2056.4899587171403,5723.125215427181
2.4340674157303375,875.9228902935405,875.4525605510435,0.22824138131128138,0.3090570832792317,0.18494291672076837,0.3547195303686811,2055.171061784507,5744.658376860292
2.4496704119850192,876.8578901305671,876.3828812508364,0.2296766250626165,0.3095763565478109,0.18442364345218903,0.3547195303686914,2054.2603381138383,5758.949481201902
2.465273408239701,877.8072634288229,877.3274601743823,0.23115278979855847,0.3101104350879062,0.1838895649120938,0.3547195303687021,2053.32364832468,5773.190044861243
2.4808764044943823,878.7713991811936,878.286683472609,0.23267098801977995,0.3106597214038726,0.1833402785961274,0.3547195303687131,2052.3602864876775,5787.3808616431
2.504280898876405,880.2461624564944,879.7538501644887,0.2350296068614393,0.3115130731178941,0.18248692688210588,0.3547195303687305,2050.86364174898,5808.5755441527335
2.527685393258427,881.7564503540002,881.2562587654149,0.23748936985431487,0.31240301893236055,0.18159698106763947,0.35471953036874887,2049.3028167115863,5829.662747643495
2.5510898876404493,883.3037319411618,882.7953676326408,0.24005443034748236,0.31333106153498474,0.18066893846501525,0.3547195303687683,2047.6751758975074,5850.64513771492
2.574494382022472,884.8895438428588,884.3727023512598,0.24272911083077234,0.31429876480884966,0.1797012351911503,0.3547195303687889,2045.9779765016965,5871.525379000447
2.5978988764044946,886.5154932852809,885.9898587912473,0.24551790857050065,0.3153077558714239,0.17869224412857607,0.35471953036881065,2044.2083648159355,5892.306137773217
2.609601123595506,887.3440419184595,886.8138888581565,0.2469565559812125,0.31582826058889585,0.1781717394111042,0.35471953036882203,2043.2954813775216,5902.6600455251755
2.621303370786517,888.1832612345761,887.6485062569948,0.24842550121831672,0.316359727103851,0.17764027289614895,0.35471953036883375,2042.363372669783,5912.990084582388
2.6330056179775285,889.0333734052512,888.4939316562231,0.24992535807801788,0.3169023774886458,0.17709762251135427,0.35471953036884585,2041.4116492127228,5923.2965898672965
2.64470786516854,889.894605618879,889.3503907240008,0.2514567523144618,0.3174564381420364,0.17654356185796358,0.3547195303688583,2040.4399139385177,5933.579896903905
2.656410112359551,890.767190185939,890.2181142342527,0.25302032180477885,0.318022139848893,0.17597786015110709,0.3547195303688711,2039.4477620867904,5943.8403419028045
2.668112359550562,891.651364645342,891.0973381739338,0.2546167167108157,0.31859971783871344,0.17540028216128659,0.3547195303688843,2038.4347811019854,5954.078261846772
2.675913857677903,892.2473728292872,891.6899955368739,0.255699543019089,0.31899148596581783,0.1750085140341822,0.3547195303688933,2037.7476814025445,5960.891194687286
2.683715355805244,892.8487132112042,892.2879441733614,0.2567974520638692,0.3193887110488419,0.1746112889511581,0.3547195303689026,2037.0510110603866,5967.694366855321
2.6915168539325847,893.4554601830673,892.8912580057605,0.25791064578416595,0.3197914661496118,0.17420853385038818,0.35471953036891196,2036.3446419365557,5974.487878879923
2.6993183520599255,894.0676892406328,893.5000120581894,0.25903932864595697,0.3201998252442146,0.17380017475578544,0.35471953036892157,2035.628444288627,5981.271831499871
2.707119850187266,894.6854769976912,894.1142824711119,0.26018370766077753,0.3206138632297236,0.17338613677027648,0.3547195303689314,2034.9022867589083,5988.046325675271
2.714921348314607,895.3089012002686,894.7341465159598,0.261343992403698,0.3210336559307028,0.17296634406929723,0.3547195303689414,2034.166036363036,5994.81146259921
2.7227228464419477,895.9380407407284,895.3596826097612,0.26252039503062224,0.3214592801054657,0.1725407198945343,0.3547195303689516,2033.4195584789973,6001.56734370947
2.730524344569288,896.5729756717176,895.9909703297543,0.263713130294831,0.3218908134520604,0.17210918654793964,0.35471953036896203,2032.6627168366313,6008.314070700272
2.738325842696629,897.213787219873,896.628090427953,0.2649224155626744,0.32232833461394717,0.17167166538605283,0.3547195303689727,2031.8953735076732,6015.051745534083
2.74612734082397,897.8605577991823,897.2711248456241,0.26614847082830256,0.32277192318532844,0.1712280768146716,0.35471953036898357,2031.1173888964065,6021.780470453464
2.7539288389513112,898.5140890623059,897.9202295963524,0.26739437709199815,0.3232216593391852,0.17077834066081485,0.3547205649063795,2030.326807976109,6028.500350604345
2.761730337078652,899.1759343428629,898.576272281204,0.2686649962360206,0.3236776232656539,0.1703223767343461,0.35472431282706934,2029.5205456741205,6035.211507057174
2.769531835205993,899.8467248111881,899.2402853602018,0.26996102457374194,0.32413989810157445,0.1698601018984256,0.35473094292140006,2028.6981601497648,6041.91407258983
2.7773333333333334,900.5269234155272,899.9130103975225,0.27128300766120333,0.32460857032521023,0.1693914296747898,0.3547405660940742,2027.8593052243523,6048.608185295611
2.7851348314606743,901.2169155029395,900.595005528688,0.27263151437503086,0.3250837289915075,0.16891627100849252,0.35475329911053316,2027.003619921284,6055.293987315481
2.792936329588015,901.9170404133254,901.2867161696514,0.2740071344115113,0.3255654652588546,0.16843453474114548,0.35476926416535937,2026.1307300529927,6061.971624082895
2.800737827715356,902.6276114736562,901.9885196693209,0.2754104768773389,0.32605387209107073,0.16794612790892927,0.3547885886704181,2025.2402491151765,6068.641243877439
2.808539325842697,903.3489286768548,902.7007535295742,0.27684216957406266,0.32654904406897,0.16745095593103,0.3548114051844053,2024.3317787408469,6075.302997573358
2.816340823970038,904.081286747899,903.4237332680335,0.27830285872256894,0.3270510772694448,0.16694892273055514,0.3548378514340814,2023.4049088751563,6081.957038511285
2.8241423220973787,904.8249802996614,904.1577637565897,0.27979320896488064,0.327560069184738,0.16643993081526195,0.3548680703956505,2022.459217774256,6088.603522448037
2.831943820224719,905.5803071483379,904.9031464524581,0.28131390353726715,0.3280761186635406,0.16592388133645938,0.35490221041629355,2021.4942718954524,6095.242607556075
2.83974531835206,906.3475704572271,905.6601840443988,0.28286564454309293,0.32859932586069124,0.16540067413930876,0.35494042536318643,2020.50962572407,6101.874454454604
2.847546816479401,907.1270801217808,906.4291834722954,0.2844491532733169,0.32912979218466504,0.16487020781533498,0.35498287479196794,2019.504821570083,6108.499226260859
2.8553483146067418,907.9191536431725,907.2104579218961,0.2860651705312707,0.3296676202322612,0.16433237976773885,0.3550297241295576,2018.4793893620288,6115.117088654004
2.8631498127340826,908.7241166264598,908.0043281712476,0.2877144569181736,0.33021291369799993,0.16378708630200015,0.35508114486805814,2017.4328464658365,6121.7282099464355
2.8709513108614235,909.5423029587623,908.8111235225361,0.28939779302680957,0.33076577724132067,0.1632342227586793,0.3551373147676303,2016.364697561931,6128.332761158444
2.8787528089887644,910.3740546554469,909.6311824618672,0.29111597947091067,0.3313263162867799,0.1626736837132201,0.355198418066926,2015.274434626587,6134.9309160924295
2.886554307116105,911.2197212934475,910.4648531304028,0.29286983664263455,0.33189463671930697,0.16210536328069303,0.35526464570008676,2014.1615370858208,6141.522851402541
2.8943558052434457,912.079658865507,911.3124936507426,0.2946602040320154,0.33247084441518426,0.16152915558481576,0.355336195519541,2013.0254722472278,6148.108746654072
2.9021573033707866,912.9542277680508,912.1744723243877,0.29648793884669056,0.33305504451472245,0.1609449554852775,0.3554132725239431,2011.8656961758243,6154.688784364611
2.907358302122347,913.5455808128297,912.7572769186222,0.29772761872088566,0.33344900259426635,0.16055099740573364,0.3554678324189099,2011.0790661665098,6159.072313456257
2.9125593008739075,914.1437037190973,913.3467367321763,0.2989845553014287,0.33384658861826444,0.16015341138173556,0.35552500787078056,2010.281486037445,6163.453377254568
2.9177602996254683,914.7487009552952,913.9429684116781,0.30025901140418787,0.3342478313412001,0.1597521686587999,0.35558486521223326,2009.472789020697,6167.832032008539
2.922961298377029,915.3606737086428,914.5460905197696,0.30155125003465644,0.334652758018787,0.15934724198121306,0.355647472343323,2008.652808228009,6172.208334511202
2.928162297128589,915.9797179256823,915.1562234501795,0.30286153274652733,0.3350613937821428,0.15893860621785727,0.35571289876343726,2007.8213776923535,6176.582342064858
2.93336329588015,916.6059216262266,915.7734893059854,0.30419011736173174,0.3354737607807535,0.15852623921924647,0.355781215603438,2006.9783338146656,6180.954112428937
2.941164794007491,917.5588140039481,916.7130332521875,0.30621785631570203,0.336099345173495,0.15790065482650503,0.35588927010199645,2005.6916465452737,6187.507700507559
2.948966292134832,918.528163542008,917.6693271488537,0.3082881294483543,0.33673339799054836,0.15726660200945164,0.35600424510371287,2004.377969516614,6194.0565830081105
2.9567677902621727,919.5140057550874,918.6427966223881,0.31040161955956364,0.33737590456259936,0.15662409543740063,0.35612640231588566,2003.0368694629042,6200.600957184928
2.9645692883895136,920.5161377623668,919.633864215925,0.3125588162067475,0.33802677122408475,0.15597322877591524,0.3562560125266609,2001.6680357389812,6207.141018196981
2.9723707865168545,921.5339694520105,920.6429353358018,0.31475988216333484,0.33868577676565415,0.15531422323434585,0.35639335583705134,2000.2713650581286,6213.676955642367
2.9801722846441954,922.56629081269,921.6703644340835,0.3170044425658933,0.3393524959740977,0.15464750402590227,0.3565387218341341,1998.8470952872594,6220.208947996544
2.987973782771536,923.6109200392721,922.7163709072389,0.31929126296040894,0.3400261831766526,0.1539738168233474,0.356692409563421,1997.3960097403508,6226.737153832682
2.9957752808988767,924.6642037047177,923.7808327595961,0.32161778778794725,0.3407056058947859,0.15329439410521417,0.35685472689852044,1995.919730029071,6233.261698332721
3.0035767790262176,925.7203887854948,924.8628097182781,0.32397955544426704,0.3413888354593114,0.15261116454068854,0.3570259882937398,1994.4210872325218,6239.78265350771
3.011378277153558,926.7710247711134,925.9595626732469,0.3263696369321459,0.34207304997805604,0.15192695002194395,0.3572065087200188,1992.904478096399,6246.300011461347
3.019179775280899,927.8048101701258,927.064914392036,0.32877849170294077,0.3427544957918884,0.15124550420811164,0.35739659005216756,1991.3759565076966,6252.813653168611
3.0269812734082397,928.8085355132724,928.1674145032073,0.33119486735708076,0.34342883788917145,0.1505711621108285,0.3575964961673559,1989.8426625961886,6259.323321369258
3.0347827715355806,929.769550154658,929.2499808177029,0.33360814838108577,0.34409204414882094,0.14990795585117908,0.3578064184785116,1988.3113323601276,6265.828612796604
3.0425842696629215,930.6791239374323,930.2930097581109,0.33601150259222656,0.3447415541962352,0.1492584458037648,0.3580264454666264,1986.786301112264,6272.329004303685
3.0503857677902624,931.5349207592546,931.2804114670706,0.33840403137481495,0.345377062901645,0.14862293709835497,0.3582565571410118,1985.2681390627638,6278.823913125883
3.0581872659176033,932.3411074015506,932.204701137277,0.3407905237993341,0.3460004025237921,0.1479995974762079,0.35849665393556496,1983.75380734116,6285.3127715864575
3.065988764044944,933.1063506909411,933.067916985726,0.34317925186602877,0.3466146949002671,0.1473853050997329,0.3587466068343683,1982.2380570087819,6291.795089491067
3.073790262172285,933.8411710475021,933.8789128168119,0.34557940708179574,0.34722337600125996,0.14677662399874003,0.3590063053677437,1980.7150556605827,6298.27048864463
3.081591760299626,934.5558727199247,934.64962971414,0.34799934776552593,0.3478295307376931,0.1461704692623069,0.35927568867665266,1979.1794995850125,6304.738710151351
3.0893932584269668,935.2594186125825,935.3922117920163,0.3504458622869194,0.3484356138293964,0.1455643861706036,0.35955475808325776,1977.627081270566,6311.19960396219
3.097194756554307,935.9590622266151,936.1174248114924,0.3529241233760125,0.34904343368082696,0.14495656631917306,0.3598435766843232,1976.0545183983468,6317.653110570048
3.104996254681648,936.6604166771958,936.8340846088919,0.3554379577403744,0.34965425700660097,0.14434574299339906,0.3601422622735755,1974.4593827584008,6324.099241521832
3.112797752808989,937.3677116542575,937.5490659707812,0.3579901892299165,0.35026894226955624,0.14373105773044376,0.3604509780611657,1972.8398824969368,6330.538062103116
3.12059925093633,938.0840934321216,938.2675707994621,0.36058294445765976,0.3508880592822665,0.1431119407177335,0.36076992364619226,1971.1946681868524,6336.969677351005
3.1362022471910116,939.5528823783056,939.7296168639946,0.3658963907468991,0.3521409555362188,0.1418590444637811,0.3614394399577165,1967.8230587972032,6349.81184982047
3.1440037453183525,940.3083942459066,940.4781591831941,0.36861963763403144,0.3527751401111844,0.14122485988881564,0.36179053005190887,1966.095041936737,6356.222733484341
3.1518052434456933,941.0794957671251,941.2406896837211,0.37138871022504844,0.35341464369961323,0.14058535630038674,0.3621528809386948,1964.337946703197,6362.627055661156
3.1596067415730342,941.867064731591,942.0184526333835,0.37420462815262967,0.35405953999326084,0.1399404600067392,0.3625267878308997,1962.55112609595,6369.025008732749
3.167408239700375,942.671856231642,942.8124467960336,0.37706838033073314,0.3547098812577881,0.1392901187422119,0.36291255625336527,1960.7339526067071,6375.416792643999
3.175209737827716,943.4945477542029,943.6235082487648,0.3799809432026752,0.3553657061360776,0.13863429386392243,0.36331050084181554,1958.8858066403368,6381.802613775113
3.1830112359550564,944.335769920308,944.4523681201603,0.3829432917518053,0.3560270444647525,0.13797295553524752,0.3637209445100157,1957.0060695281188,6388.182684231001
3.1908127340823973,945.1961271849955,945.2996922276056,0.3859564059841012,0.3566939202003566,0.13730607979964338,0.36414421786900436,1955.09411941426,6394.557221412393
3.198614232209738,946.0762116266708,946.1661079325403,0.38902127460615904,0.3573663531634705,0.13663364683652948,0.3645806588136802,1953.1493289220518,6400.926447775038
3.206415730337079,946.9766120427697,947.0522221270046,0.3921388969766478,0.3580443600514371,0.13595563994856288,0.36503061221611416,1951.1710639155895,6407.290590713111
3.21421722846442,947.8979198924634,947.9586331556579,0.3953102839951478,0.35872795500274723,0.13527204499725282,0.36549442968274853,1949.1586829357645,6413.649882523827
3.2220187265917604,948.8407331401584,948.8859386409741,0.39853645833080803,0.35941714988874107,0.13458285011125898,0.3659724693454226,1947.1115370551736,6420.004560424562
3.2298202247191012,949.805658710371,949.8347405685458,0.40181845423045415,0.36011195444039173,0.13388804555960826,0.3664650956651631,1945.0289699998812,6426.354866603542
3.237621722846442,950.7933140270304,950.805648554278,0.40515731704572067,0.3608123762755291,0.1331876237244709,0.36697267923387644,1942.9103184494738,6432.701048291559
3.2454232209737826,951.804327948315,951.7992819112881,0.40855410255804747,0.36151842086568003,0.13248157913431996,0.3674955965632899,1940.7549124653808,6439.043357846623
3.2532247191011234,952.8393412991245,952.8162709254519,0.4120098761439444,0.3622300914657146,0.13176990853428533,0.3680342298532983,1938.562076020547,6445.382052846062
3.2610262172284643,953.8990071307622,953.8572576070044,0.4155257118013241,0.36294738901983203,0.13105261098016802,0.36858896673370334,1936.3311276172683,6451.717396182568
3.2688277153558056,954.9839907896037,954.9228960908716,0.4191026910450368,0.36367031205165856,0.13032968794834143,0.3691601999745181,1934.0613809880224,6458.049656161706
3.2766292134831465,956.0949698453215,956.0138527956664,0.4227419016723658,0.3643988565428273,0.12960114345717272,0.36974832716074296,1931.7521458788124,6464.3791065991945
3.2844307116104874,957.2326339089877,957.1308064101263,0.42644443639499224,0.36513301580242113,0.12886698419757892,0.3703537503279642,1929.402728917246,6470.706026916699
3.292232209737828,958.3976843583239,958.2744477489779,0.4302113913314776,0.3658727803285188,0.12812721967148125,0.3709768755553866,1927.0124345691202,6477.030702235103
3.3000337078651687,959.5908339789885,959.4454795028938,0.4340438643528955,0.3666181376624305,0.1273818623375695,0.371618112513045,1924.5805661881868,6483.353423464422
3.3078352059925096,960.812806525413,960.6446158960689,0.43794295327341076,0.36736907223584386,0.12663092776415616,0.3722778739600073,1922.106427164309,6489.67448738956
3.3156367041198505,962.0643362012447,961.8725822577903,0.441909753877121,0.36812556521090173,0.1258744347890983,0.3729565751904044,1919.589322175515,6495.994196751145
3.3234382022471913,963.3461670572229,963.1301145097926,0.4459453577721884,0.36888759431312546,0.12511240568687457,0.37365463342412975,1917.028558549642,6502.312860320702
3.331239700374532,964.6590523028576,964.4179585682392,0.45005085006315515,0.36965513365704294,0.12434486634295704,0.3743724671390508,1914.4234477413538,6508.630792969342
3.339041198501873,966.0037535273219,965.7368696572569,0.45422730683229384,0.37042815356435893,0.12357184643564106,0.37511049534158813,1911.773306930331,6514.948315729169
3.3468426966292135,967.3810398243222,967.0876115297053,0.45847579242090125,0.3712066203744987,0.12279337962550131,0.3758691367725395,1909.0774607464057,6521.265755846532
3.3546441947565544,968.7916868152772,968.4709555900238,0.46279735650159953,0.3719904962473636,0.12200950375263646,0.3766488090450792,1906.3352431273138,6527.583446826209
3.3624456928838953,970.2364755648415,969.8876799134489,0.4671930309329501,0.37277973895814775,0.12122026104185227,0.3774499277119354,1903.5459993145748,6533.901728465536
3.370247191011236,971.7161913826303,971.3385681555234,0.47166382638805804,0.3735743016840882,0.12042569831591182,0.37827290525886476,1900.7090879927891,6540.220946877482
3.378048689138577,973.2316225048983,972.8244083455755,0.47621072874931664,0.3743741327830409,0.11962586721695913,0.3791181500216896,1897.8238835773263,6546.541454501571
3.385850187265918,974.7835586498966,974.3459915577083,0.4808346952620653,0.3751791755638073,0.11882082443619267,0.37998606502435894,1894.8897786549942,6552.863610101514
3.393651685393259,976.3727894406935,975.904110452787,0.48553665044069466,0.37598936804816835,0.11801063195183163,0.38087704673573797,1891.9061865817891,6559.18777874835
3.4014531835205997,978.0001026893531,977.4995576849392,0.49031748172166023,0.3768046427246215,0.11719535727537853,0.38179148374312455,1888.872544241247,6565.514331787854
3.4092546816479405,979.6662825365773,979.1331241661878,0.495178034858963,0.3776249262938618,0.11637507370613824,0.38272975534084647,1885.7883149662084,6571.843646790884
3.4170561797752814,981.372107441203,980.8055971830245,0.5001191090589412,0.3784501394060968,0.1155498605939032,0.383692230032707,1882.6529916259992,6578.176107485316
3.4248576779026223,983.1183480143171,982.5177583590126,0.5051414518526989,0.379280196390341,0.11471980360965899,0.3846792639475284,1879.4660998800975,6584.512103668142
3.432659176029963,984.9057646932424,984.2703814578773,0.510245753706189,0.38011500497589756,0.11388499502410247,0.38569119916758954,1876.2272015982644,6590.8520310962695
3.440460674157304,986.7351052512187,986.0642300220235,0.5154326423698713,0.38095446600630384,0.11304553399369621,0.3867283619703789,1872.9358984459295,6597.196291354545
3.4482621722846445,988.6071021393125,987.9000548420004,0.5207026769719953,0.38179847314609205,0.11220152685390793,0.38779106098477484,1869.5918356322557,6603.545291699408
3.4560636704119854,990.522469657904,989.7785912531531,0.5260563418619142,0.38264691258079964,0.11135308741920034,0.3888795852635377,1866.1947058168214,6609.899444876668
3.4638651685393262,992.4819009560487,991.7005562565215,0.5314940402124032,0.3834996627107501,0.1105003372892499,0.38999420227483833,1862.7442531692209,6616.259168911766
3.471666666666667,994.4860648580901,993.6666454620321,0.5370160873927805,0.38435659383922677,0.10964340616077325,0.3911351558164694,1859.2402775741068,6622.62488687095
3.479468164794008,996.5356025181195,995.6775298531232,0.542622704127611,0.38521756785576056,0.10878243214423944,0.3923026638573674,1855.6826389722823,6628.997026591755
3.487269662921349,998.6311239042251,997.7338523732092,0.5483140094590219,0.3860824379153664,0.10791756208463366,0.3934969163121316,1852.071261826417,6635.376020381178
3.4950711610486898,1000.773204115975,999.8362243357817,0.5540900135340323,0.3869510481146785,0.10704895188532147,0.3947180727553337,1848.4061396977906,6641.762304680025
3.50287265917603,1002.9623795401952,1001.985221661501,0.5599506102418763,0.38782323316606176,0.10617676683393826,0.39596626008358055,1844.6873399182334,6648.156319691855
3.510674157303371,1005.1991438518702,1004.1813809473216,0.5658955697299725,0.38869881807090156,0.10530118192909844,0.3972415701344892,1840.9150083390582,6654.558508975074
3.518475655430712,1007.483943868866,1006.42519537453,0.5719245308309758,0.3895776177934151,0.10442238220658491,0.3985440572729741,1837.0893741364243,6660.96931899679
3.5262771535580524,1009.8171752711719,1008.7171104645457,0.5780369934371821,0.390459436936463,0.10354056306353696,0.3998737359564825,1833.2107546501036,6667.38919864709
3.5340786516853933,1012.1991781974415,1011.0575196934251,0.5842323108623729,0.3913440694209869,0.1026559305790131,0.4012305782920623,1829.2795602302158,6673.818598712567
3.541880149812734,1014.6302327337775,1013.4467599782008,0.5905096822349625,0.3922312981708412,0.10176870182915881,0.40261451159935885,1825.296299064106,6680.257971308014
3.549681647940075,1017.1105543119298,1015.8851070504871,0.5968681449699633,0.3931208948049398,0.10087910519506021,0.4040254159948153,1821.2615819532023,6686.7077692653775
3.557483146067416,1019.640289036325,1018.372770735122,0.603306567370751,0.39401261933878073,0.0999873806612192,0.40546312201345514,1817.176127007514,6693.168445479214
3.569185393258427,1023.5276769877274,1022.1970187309155,0.613111214121143,0.3953536416545892,0.0986463583454108,0.4076694350967426,1810.9546584452437,6702.880845497875
3.5808876404494385,1027.526293919815,1026.132670078175,0.6230875891995452,0.3966979805136586,0.09730201948634142,0.4099345631946402,1804.6242208990657,6712.6202585786095
3.59258988764045,1031.6356107070133,1030.1794509453964,0.6332295201601812,0.39804467078681904,0.09595532921318098,0.4122572382364934,1798.1887310503582,6722.388191355545
3.604292134831461,1035.8546278858312,1034.3366311846746,0.6435298116004605,0.39939268220187696,0.09460731779812306,0.4146358871874142,1791.652754690439,6732.186130807382
3.615994382022472,1040.181841228541,1038.602988216602,0.6539802053120555,0.4007409179489235,0.0932590820510765,0.41706861902557374,1785.021532006416,6742.01553720292
3.6276966292134833,1044.6152089240013,1042.976772192664,0.6645713470869918,0.402088213616899,0.09191178638310099,0.4195532137960347,1778.3009986441427,6751.877836576313
3.6393988764044947,1049.1521209665002,1047.4556730507345,0.6752927612380457,0.40343333651344515,0.09056666348655489,0.4220871140723408,1771.4978018761215,6761.774412760242
3.651101123595506,1053.7893713690705,1052.0367901057768,0.6861328338351929,0.40477498542091345,0.08922501457908659,0.4246674191354315,1764.6193112386914,6771.706599014143
3.6628033707865173,1058.5231338192161,1056.7166048305492,0.6970788055700776,0.40611179084128474,0.08788820915871527,0.4272908821470776,1757.6736230598328,6781.675669293839
3.6745056179775286,1063.3489413811023,1061.4909574781805,0.7081167750387826,0.4074423157815846,0.0865576842184154,0.4299539105521759,1750.669558376105,6791.682829218075
3.68620786516854,1068.261670818224,1066.355028178499,0.7192317130813031,0.408765057129055,0.085234942870945,0.43265256989162104,1743.6166538336383,6801.729206796366
3.697910112359551,1073.2555320642425,1071.3033231023378,0.7304074886373031,0.41007844766179163,0.08392155233820832,0.4353825911463171,1736.5251452815467,6811.815842991072
3.7057116104868917,1076.626682755001,1074.6459559291686,0.737883355136098,0.41094804461576073,0.08305195538423929,0.43721777352251917,1731.781387593783,6818.563103639793
3.7135131086142326,1080.028953486536,1078.021291929882,0.7453732912005486,0.4118122659562028,0.08218773404379724,0.43906342190148623,1727.0287021636289,6825.328932934219
3.7213146067415734,1083.460132063171,1081.4271972226327,0.7528717560849231,0.4126706036863676,0.08132939631363245,0.4409180396301355,1722.2706048317125,6832.113562684939
3.7291161048689143,1086.9178759234046,1084.861404045113,0.7603730249652927,0.41352253945671485,0.08047746054328511,0.44278007380841544,1717.510728244166,6838.917201267192
3.7369176029962548,1090.3997141129025,1088.3215123552611,0.7678711987077053,0.4143675452261594,0.07963245477384061,0.4446479181622013,1712.7528156543021,6845.740032408967
3.7447191011235956,1093.902990535666,1091.804938853211,0.77536007155763,0.41520506800395357,0.07879493199604647,0.44651988043126045,1708.0008048793316,6852.582345631334
3.7525205992509365,1097.4227827185816,1095.307007494223,0.7828282263200763,0.41603398571007155,0.07796601428992848,0.4483929519379301,1703.2619406187835,6859.449081784825
3.760322097378277,1100.954500110558,1098.8232223601103,0.7902654862817065,0.41685333794821006,0.07714666205178997,0.45026441112888393,1698.5426804334165,6866.3439745124415
3.768123595505618,1104.4951087161703,1102.3505026301088,0.7976655448636585,0.41766260696823804,0.07633739303176199,0.4521324940248841,1693.8470261178004,6873.267102906913
3.7759250936329587,1108.0415154842015,1105.8857425309654,0.8050220283076099,0.4184612734794457,0.07553872652055435,0.4539954138816452,1689.1790220947512,6880.218515334356
3.7837265917603,1111.59056229311,1109.4257875215978,0.8123285118123975,0.4192488177401316,0.07475118225986843,0.4558513659384994,1684.542745175956,6887.198228752714
3.791528089887641,1115.1390258574863,1112.9674243331121,0.8195785354505468,0.42002472067431795,0.07397527932568204,0.45769853206030525,1679.9422944622515,6894.206228003243
3.7993295880149818,1118.6836210550896,1116.5073788573266,0.8267656199876408,0.4207884650178243,0.0732115349821757,0.4595350853148442,1675.3817813055566,6901.242465120877
3.807131086142322,1122.2210062671056,1120.0423185250436,0.8338832826300265,0.4215395364930158,0.07246046350698424,0.46135919449561547,1670.8653193162784,6908.306858690573
3.814932584269663,1125.7477899313453,1123.568857288667,0.8409250526735547,0.42227742500983034,0.07172257499016964,0.463169028582545,1666.3970144335149,6915.399293266049
3.822734082397004,1129.2605378445596,1127.0835621422198,0.8478844869980168,0.4230016258896606,0.07099837411033942,0.4649627611240142,1661.9809550931725,6922.519618861301
3.830535580524345,1132.7557809361313,1130.5829605656913,0.8547551853378698,0.4237116411080422,0.0702883588919578,0.4667385745191413,1657.6212025380355,6929.667650521645
3.8383370786516857,1136.2300233380174,1134.063548531853,0.8615308052535368,0.42440698055172266,0.06959301944827734,0.46849466417735103,1653.3217813178342,6936.843167978857
3.8500393258426966,1141.394319850619,1139.2414409089654,0.8715022707605121,0.4254214234216292,0.06857857657837081,0.4710879119743564,1646.9944591051367,6947.657410615266
3.861741573033708,1146.4915595546074,1144.3571133312814,0.8812249407873993,0.4264001884141784,0.06759981158582165,0.47362682308357257,1640.8250082872185,6958.531897960707
3.8734438202247192,1151.509858620451,1149.3986004284532,0.8906785733542556,0.42734176034752497,0.06665823965247501,0.47610558910917516,1634.8262732678668,6969.4654344437
3.8851460674157305,1156.4374073100373,1154.3539934567502,0.8998435612060179,0.42824469615742383,0.06575530384257618,0.4785185591821211,1629.0106956907296,6980.456643854031
3.896848314606742,1161.2625306891273,1159.2115040216675,0.908701018405856,0.429107634318346,0.06489236568165399,0.48086026186863245,1623.390259492124,6991.503970983547
3.908550561797753,1165.9737466573004,1163.959525412115,0.9172328575583194,0.4299293040516039,0.06407069594839612,0.48312542390151797,1617.9764418996365,7002.605684265766
3.9202528089887645,1170.5598203771874,1168.586690596857,0.9254218566950603,0.4307085342692431,0.06329146573075688,0.48530898543563306,1612.7801709902687,7013.759879372812
3.931955056179776,1175.0098141637736,1173.081925944824,0.9332517148980933,0.43144426222043397,0.06255573777956602,0.4874061115260638,1607.8117903950929,7024.964483712121
3.943657303370787,1179.3131318492171,1177.4344997179644,0.940707095736358,0.43213554183133485,0.06186445816866515,0.489412199503675,1603.0810317368919,7036.217261748807
3.9553595505617984,1183.4595565597729,1181.6340643463727,0.9477736575316988,0.43278155176196287,0.06121844823803716,0.4913228818685148,1598.5969954251,7047.515821061981
3.9631610486891393,1186.131816114282,1184.3438479514205,0.9522620631888772,0.433186729398853,0.06081327060114696,0.49254161590111684,1595.748909675378,7055.072378333891
3.97096254681648,1188.7271773565737,1186.9783731537898,0.9565680148709976,0.43357130842346486,0.06042869157653518,0.4937149364334852,1593.0165987922862,7062.647366732167
3.9787640449438206,1191.2429267389616,1189.5348980958859,0.9606880109604693,0.43393514783179854,0.060064852168201434,0.4948417175793019,1590.4022847022554,7070.23996998733
3.983965043695381,1192.8745636723963,1191.1946022605944,0.9633297254246453,0.4341661292530633,0.05983387074693672,0.4955665122784466,1588.7260036584014,7075.311076504611
3.9891660424469415,1194.4688918268555,1192.8176978577646,0.9658863864835394,0.43438781764330137,0.05961218235669861,0.4962698275633631,1587.1036926453448,7080.3893819852565
3.9943670411985024,1196.0251713733664,1194.403440887765,0.9683570978171784,0.43460019389619975,0.059399806103800225,0.49695135825049946,1585.5359204165222,7085.474625653419
3.999568039950063,1197.542678987624,1195.951105389148,0.9707409984736359,0.43480324532785003,0.059196754672150007,0.49761080553011006,1584.0232332828289,7090.566542008395
4.004769038701624,1199.020707319632,1197.4599831205458,0.9730372615179202,0.43499696585353276,0.059003034146467216,0.4982478763006358,1582.5661559699574,7095.664860953642
4.009970037453184,1200.4585642930015,1198.9293831025855,0.9752450924350128,0.4351813561809212,0.05881864381907882,0.498862282397719,1581.165192631737,7100.769307922257
4.015171036204745,1201.8555722116562,1200.3586310043554,0.9773637272563425,0.43535642402425423,0.058643575975745765,0.4994537397021848,1579.820828038968,7105.879603997674
4.0203720349563055,1203.2110666469125,1201.7470683559827,0.9793924303718969,0.4355221843451579,0.05847781565484212,0.500021967107639,1578.5335289677298,7110.9954660281865
4.0255730337078655,1204.5243950718948,1203.0940515651728,0.9813304919812595,0.43567865962725405,0.058321340372746,0.5005666853236408,1577.303745816806,7116.1166067336935
4.030774032459426,1205.7949152024878,1204.3989507109009,0.9831772251254476,0.4358258801936196,0.05817411980638036,0.5010876154843577,1576.1319144911122,7121.24273480284
4.035975031210987,1207.021992994094,1205.661148081608,0.9849319622267972,0.4359638845787191,0.05803611542128088,0.5015844775247594,1575.0184585972872,7126.373554978384
4.041176029962547,1208.2050002305425,1206.880036417899,0.9865940510452762,0.4360927199698902,0.05790728003010978,0.5020569882761198,1573.9637920095845,7131.508768128321
4.046377028714108,1209.3433116245903,1208.0550168104355,0.9881628499350824,0.4362124427382095,0.05778755726179044,0.5025048592189812,1572.968321879764,7136.648071299748
4.048977528089889,1209.8955109336532,1208.625856040744,0.9889120666849546,0.43626890717204336,0.057731092827956715,0.5027194624907038,1572.492911742681,7139.219160934554
4.051578027465669,1210.436301325983,1209.1854961857234,0.9896377222563835,0.4363231190849268,0.05767688091507314,0.5029277938148804,1572.032452183085,7141.791157751821
4.054178526841449,1210.9656037918176,1209.7338635345307,0.9903397367639923,0.43637508841887357,0.05762491158112638,0.5031298143468531,1571.5869938916712,7144.364022818401
4.056779026217229,1211.4833387122414,1210.2708843371815,0.991018029738708,0.43642482584058934,0.05757517415941061,0.5033254843060886,1571.1565879295151,7146.937716963776
4.059379525593009,1211.989425675386,1210.7964846779578,0.9916725198460021,0.436472342778376,0.057527657221624035,0.5035147628373351,1570.7412859068613,7149.512200778522
4.06198002496879,1212.4837832732321,1211.3105903370274,0.9923031245764966,0.43651765146387433,0.05748234853612566,0.503697607856939,1570.3411401794453,7152.087434612168
4.064580524344571,1212.9663288766048,1211.8131266391106,0.9929097599056035,0.4365607649794823,0.05743923502051768,0.5038739758822848,1569.9562040644698,7154.663378570325
4.067181023720351,1213.4369783855884,1212.3040182879256,0.9934923399184468,0.4366016973124603,0.05739830268753969,0.5040438218419854,1569.586532078606,7157.239992511058
4.069781523096131,1213.8956459521887,1212.7831891850346,0.9940507763958577,0.43664046341696566,0.05735953658303434,0.5042070988640606,1569.232180200697,7159.817236040372
4.072382022471911,1214.342243671624,1213.2505622316226,0.9945849783567674,0.4366770792855447,0.0573229207144553,0.5043637580388813,1568.8932061621301,7162.395068506747
4.074982521847691,1214.7766812381299,1213.706059111692,0.99509485155189,0.43671156203198436,0.05728843796801567,0.5045137481531325,1568.5696697681162,7164.973448994585
4.077583021223472,1215.1988655606442,1214.14960005517,0.9955802979032562,0.4367439299879097,0.05725607001209028,0.5046570153904377,1568.261633253331,7167.5523363164775
4.0801835205992525,1215.6087003332361,1214.5811035795532,0.9960412148840456,0.4367742028161534,0.057225797183846606,0.5047935029936123,1567.9691616754353,7170.131689004115
4.0827840199750325,1216.0060855547024,1215.0004862090534,0.9964774948335329,0.436802401644772,0.057197598355227995,0.504923150882793,1567.6923233497732,7172.711465297711
4.0853845193508125,1216.390916991558,1215.407662170899,0.996889024203161,0.4368285492267381,0.05717145077326192,0.5050458952229752,1567.4311903277712,7175.291623133748
4.0879850187265925,1216.7630855789132,1215.8025430696975,0.9972756827325411,0.4368526701319119,0.057147329868088036,0.5051616679339151,1567.1858389198,7177.872120130856
4.0905855181023725,1217.1224767549675,1216.185037543028,0.9976373425597874,0.4368747909801011,0.05712520901989887,0.5052703961351903,1566.9563502597052,7180.452913573612
4.0931860174781525,1217.468969727937,1216.5550509053346,0.9979738672813285,0.4368949407271403,0.05710505927285967,0.505372001519956,1566.7428109013995,7183.033960394032
4.0957865168539325,1217.802436680898,1216.912484793972,0.9982851109964173,0.43691315102046036,0.05708684897953963,0.5054663996536796,1566.545313425159,7185.615217150555
4.0983870162297125,1218.122741933485,1217.2572368430606,0.9985709174089755,0.43692945664734023,0.05707054335265974,0.5055534992009346,1566.3639570075447,7188.196640004332
4.1009875156054925,1218.4297411060968,1217.589200431558,0.9988311191296974,0.4369438961092851,0.0570561038907149,0.5056332010985228,1566.1988478642445,7190.778184692759
4.103588014981273,1218.7232803852537,1217.9082645892602,0.9990655374557866,0.43695651237205785,0.05704348762794221,0.5057053977257504,1566.050099389841,7193.359806500395
4.105321681231794,1218.9114150960256,1218.1137509857374,0.9992073991578692,0.4369639339788213,0.05703606602117875,0.5057493018883272,1565.9600820600822,7195.080908249696
4.106188514357054,1219.003196094343,1218.2143142097561,0.9992739831692588,0.4369673538665436,0.05703264613345638,0.5057699721923914,1565.917831651255,7195.941460227906
4.107055347482314,1219.0934441808763,1218.3134182295573,0.9993376594762585,0.4369705826275318,0.05702941737246816,0.5057897816115288,1565.8774263054793,7196.802010677865
4.107922180607574,1219.1821527228894,1218.4110586006846,0.9993984206868072,0.4369736225058705,0.05702637749412949,0.5058087252271966,1565.8388707133342,7197.662557893231
4.108789013732834,1219.2693150020555,1218.507230870161,0.9994562594350812,0.43697647586237903,0.05702352413762096,0.5058267980136092,1565.802169548751,7198.523100160838
4.109655846858095,1219.3549242344166,1218.601930592128,0.9995111684417497,0.43697914518592745,0.057020854814072555,0.5058439948482247,1565.7673274307765,7199.383635760622
4.1105226799833545,1219.4389735977315,1218.6951533478175,0.999563140592607,0.43698163310640115,0.05701836689359884,0.5058603105272275,1565.7343488736797,7200.244162965568
4.111389513108614,1219.521456268545,1218.7868947710263,0.9996121690411708,0.43698394240963784,0.05701605759036214,0.5058757397877128,1565.7032382218467,7201.104680041693
4.112256346233874,1219.6023654721216,1218.8771505806026,0.999658247342777,0.4369860760547404,0.0570139239452596,0.5058902773388888,1565.6739995646933,7201.965185248079
4.113123179359134,1219.6816945495302,1218.9659166219408,0.9997013696304021,0.4369880371942759,0.05701196280572403,0.5059039179054908,1565.6466366250972,7202.82567683697
4.113990012484394,1219.7594370477677,1219.0531889201425,0.9997415308462896,0.43698982919801294,0.057010170801987024,0.5059166562878468,1565.6211526124216,7203.686153053954
4.115290262172284,1219.8730626889867,1219.1812885360214,0.9997962124448547,0.43699220805737465,0.0570077919426253,0.5059340613100678,1565.5864547946346,7204.976834703778
4.116590511860174,1219.9830864945318,1219.3060078867047,0.9998442168413195,0.436994227980763,0.05700577201923704,0.5059494094468685,1565.5559939477466,7206.2674718369135
4.117457344985435,1220.0544275370817,1219.3872719229703,0.9998725125860147,0.43699538259274207,0.0570046174072579,0.5059584922763145,1565.5380390850628,7207.127868903228
4.1183241781106945,1220.1241589805302,1219.4670282952543,0.999897849438946,0.43699638938588314,0.05700361061411688,0.5059666523932714,1565.5219617660127,7207.9882417430845
4.119191011235955,1220.1922804330188,1219.5452765478908,0.9999202391111796,0.4369972538785621,0.0570027461214379,0.5059738885164444,1565.5077545594233,7208.8485885764685
4.119768899986128,1220.2368013871078,1219.5966046194924,0.9999335372958642,0.43699775414576114,0.05700224585423888,0.5059781995517305,1565.4993162913186,7209.422137805698
4.120346788736302,1220.2806095400333,1219.6472635634843,0.999945542007434,0.43699819586165545,0.05700180413834455,0.5059821011578743,1565.49169878734,7209.995674160368
4.120924677486475,1220.3237076466187,1219.6972545989554,0.9999562639285018,0.4369985811776067,0.05700141882239329,0.5059855950484992,1565.4848952689113,7210.569197116569
4.121502566236649,1220.3660998048551,1219.746579527706,0.9999657170575913,0.4369989124338192,0.057001087566180726,0.5059886839480867,1565.47889685337,7211.142706153044
4.122080454986822,1220.4077918594814,1219.795240878599,0.9999739196824399,0.4369991921900957,0.05700080780990432,0.5059913719133644,1565.4736919363627,7211.71620075233
4.122658343736996,1220.4487919520002,1219.8432420957515,0.99998089570772,0.43699942326415453,0.05700057673584547,0.5059936647753585,1565.46926534935,7212.28968040225
4.1229472881120826,1220.469035865913,1219.8669965403535,0.9999839331892972,0.43699952150800403,0.057000478491995986,0.5059946654967443,1565.4673379371113,7212.576414463058
4.123236232487169,1220.4891112824648,1219.8905877875059,0.9999866764959855,0.4369996087799393,0.0570003912200607,0.5059955707571433,1565.4655971914474,7212.863144597875
4.123525176862255,1220.5090202569852,1219.914016650109,0.9999891311432165,0.4369996855285515,0.05700031447144853,0.5059963821034555,1565.4640396125799,7213.149870745147
4.123814121237342,1220.5287651961723,1219.9372840622145,0.999991303500973,0.43699975223037685,0.057000247769623126,0.5059971013638138,1565.4626611584824,7213.43659284416
4.124103065612429,1220.5483489223764,1219.9603910971982,0.9999932009500818,0.4369998093930232,0.057000190606976815,0.5059977307010041,1565.461457145704,7213.72331083517
4.124392009987516,1220.5677747526834,1219.9833389894338,0.9999948320747667,0.4369998575588105,0.057000142441189484,0.5059982726784907,1565.460422127186,7214.0100246595775
4.124825426550146,1220.5966261897254,1220.0174656033962,0.9999968018085833,0.4369999142219861,0.057000085778013944,0.5059989286678639,1565.4591722466619,7214.440087458982
4.125258843112776,1220.6251477068524,1220.0512431555892,0.9999982368788818,0.43699995411449677,0.05700004588550324,0.5059994079858663,1565.4582616330547,7214.87014056883
4.1256922596754055,1220.6533606252206,1220.0846788324513,0.9999991909316498,0.4369999796626546,0.05700002033734535,0.505999727615382,1565.4576562456855,7215.300183813322
4.126125676238036,1220.6812930906215,1220.1177816797008,0.9999997342890279,0.43699999362953307,0.05700000637046693,0.5059999102359902,1565.4573114621421,7215.730217030338
4.126559092800666,1220.7089829378683,1220.1505632188396,0.9999999610068175,0.4369999992031355,0.0570000007968645,0.5059999866892125,1565.4571675999885,7216.160240075958
4.1267758010819815,1220.722752386044,1220.1668379840926,0.9999999940620738,0.43699999998342776,0.05700000001657222,0.5059999978683598,1565.4571466250115,7216.375247746012
4.126992509363296,1220.7364821917774,1220.1830383502202,0.9999999999989991,0.437000000118903,0.056999999881096976,0.5059999998808729,1565.4571428577779,7216.590252831014
4.127425925925926,1220.7638515197248,1220.2152246932915,0.9999999999996189,0.4370000001176283,0.05699999988237172,0.5059999998823718,1565.4571428573847,7217.020255209182
4.127859342488556,1220.7911098559664,1220.2471342716824,0.9999999999996189,0.43700000011633827,0.05699999988366174,0.5059999998836617,1565.4571428573847,7217.450247147483
4.128292759051186,1220.8182610297752,1220.2787766078566,0.9999999999996189,0.4370000001150475,0.056999999884952496,0.5059999998849525,1565.4571428573847,7217.880228587357
4.128726175613816,1220.845308738646,1220.3101608970721,0.9999999999996189,0.437000000113756,0.056999999886244004,0.505999999886244,1565.4571428573847,7218.310199472344
4.129159592176446,1220.8722565530575,1220.341296018668,0.9999999999996189,0.43700000011246376,0.056999999887536255,0.5059999998875363,1565.4571428573847,7218.740159748014
4.129593008739076,1220.8991079208351,1220.372190546926,0.9999999999996189,0.43700000011117074,0.05699999988882925,0.5059999998888293,1565.4571428573847,7219.170109361899
4.130459841864337,1220.9525345195284,1220.4332906574425,0.9999999999996189,0.43700000010858253,0.05699999989141745,0.5059999998914174,1565.4571428573847,7220.029976403849
4.131326674989596,1221.0056138210816,1220.4935241117455,0.9999999999996189,0.4370000001059914,0.0569999998940086,0.5059999998940086,1565.4571428573847,7220.889800215145
4.132193508114856,1221.0583694043885,1220.5529495463145,0.9999999999996189,0.4370000001033973,0.056999999896602684,0.5059999998966027,1565.4571428573847,7221.749580440033
4.133060341240117,1221.1108232563838,1220.6116216383125,0.9999999999996189,0.4370000001008003,0.05699999989919969,0.5059999998991997,1565.4571428573847,7222.609316748197
4.133927174365377,1221.162995879576,1220.6695913730716,0.9999999999996189,0.4370000000982004,0.05699999990179961,0.5059999999017997,1565.4571428573847,7223.469008833039
4.134794007490637,1221.2149063923064,1220.7269062934936,0.9999999999996189,0.4370000000955976,0.05699999990440243,0.5059999999044025,1565.4571428573847,7224.328656410077
4.135660840615897,1221.2665726222383,1220.7836107325857,0.9999999999996189,0.43700000009299184,0.056999999907008145,0.5059999999070082,1565.4571428573847,7225.1882592154525
4.136527673741157,1221.3180111935203,1220.8397460302795,0.9999999999996189,0.43700000009038326,0.056999999909616746,0.5059999999096167,1565.4571428573847,7226.047817004528
4.137394506866418,1221.3692376080671,1220.8953507355914,0.9999999999996189,0.4370000000877718,0.05699999991222822,0.5059999999122282,1565.4571428573847,7226.907329550592
4.1382613399916774,1221.420266321344,1220.9504607951212,0.9999999999996189,0.43700000008515744,0.056999999914842565,0.5059999999148426,1565.4571428573847,7227.766796643648
4.139128173116937,1221.4711108130302,1221.0051097288112,0.9999999999996189,0.4370000000825402,0.05699999991745978,0.5059999999174598,1565.4571428573847,7228.626218089279
4.139995006242198,1221.5217836529118,1221.059328793825,0.9999999999996189,0.4370000000799201,0.05699999992007985,0.5059999999200798,1565.4571428573847,7229.485593707601
4.140861839367458,1221.572296562318,1221.1131471373549,0.9999999999996189,0.4370000000772972,0.05699999992270278,0.5059999999227027,1565.4571428573847,7230.344923332268
4.141728672492718,1221.6226604714113,1221.1665919391064,0.9999999999996189,0.43700000007467144,0.05699999992532855,0.5059999999253285,1565.4571428573847,7231.204206809571
4.142595505617978,1221.6728855726067,1221.2196885441501,0.9999999999996189,0.4370000000720428,0.05699999992795717,0.5059999999279572,1565.4571428573847,7232.063443997572
4.143462338743237,1221.7229813703807,1221.2724605868034,0.9999999999996189,0.43700000006941137,0.056999999930588637,0.5059999999305886,1565.4571428573847,7232.922634765315
4.144329171868497,1221.772956727717,1221.3249301061405,0.9999999999996189,0.4370000000667771,0.05699999993322293,0.505999999933223,1565.4571428573847,7233.781778992078
4.145196004993758,1221.8228199094176,1221.3771176537011,0.9999999999996189,0.4370000000641399,0.05699999993586007,0.5059999999358601,1565.4571428573847,7234.640876566685
4.146929671244278,1221.9222400524584,1221.480722194512,0.9999999999996189,0.43700000005885714,0.05699999994114285,0.5059999999411429,1565.4571428573847,7236.358931358616
4.148663337494798,1222.0212974237756,1221.5834125254553,0.9999999999996189,0.43700000005356304,0.056999999946436945,0.505999999946437,1565.4571428573847,7238.076798419063
4.150397003745319,1222.1200403916241,1221.6853089191634,0.9999999999996189,0.4370000000482577,0.056999999951742354,0.5059999999517424,1565.4571428573847,7239.794477141667
4.152130669995839,1222.2185110163066,1221.7865159623675,0.9999999999996189,0.43700000004294093,0.05699999995705906,0.505999999957059,1565.4571428573847,7241.511967020601
4.153864336246359,1222.3167458730097,1221.8871246021406,0.9999999999996189,0.4370000000376129,0.056999999962387075,0.5059999999623871,1565.4571428573847,7243.229267637428
4.1555980024968795,1222.4147767672814,1221.9872139251213,0.9999999999996189,0.43700000003227363,0.056999999967726395,0.5059999999677264,1565.4571428573847,7244.946378649663
4.1573316687474,1222.5126313571545,1222.0868527045834,0.9999999999996189,0.43700000002692296,0.05699999997307702,0.505999999973077,1565.4571428573847,7246.66329978083
4.159065334997919,1222.610333694105,1222.1861007456491,0.9999999999996189,0.43700000002156103,0.05699999997843895,0.5059999999784389,1565.4571428573847,7248.380030811831
4.159932168123179,1222.6591344149379,1222.2355947678075,0.9999999999996189,0.43700000001887584,0.056999999981124164,0.5059999999811242,1565.4571428573847,7249.238324985115
4.1607990012484395,1222.707904693869,1222.2850100560677,0.9999999999996189,0.4370000000161878,0.05699999998381221,0.5059999999838122,1565.4571428573847,7250.096571573418
4.16253266749896,1222.8053625436864,1222.383625858902,0.9999999999996189,0.4370000000108032,0.05699999998919679,0.5059999999891968,1565.4571428573847,7251.812921939693
4.1633995006242195,1222.8540540643246,1222.4328361946016,0.9999999999996189,0.4370000000081067,0.05699999999189334,0.5059999999918934,1565.4571428573847,7252.671025695669
4.16426633374948,1222.9027230610475,1222.4819874846128,0.9999999999996189,0.4370000000054073,0.05699999999459272,0.5059999999945928,1565.4571428573847,7253.529081822379
4.165133166874741,1222.9513711911202,1222.531083849731,0.9999999999996189,0.43700000000270506,0.056999999997294944,0.505999999997295,1565.4571428573847,7254.387090313862
4.166,1223.0,1222.580129132735,0.9999999999996187,0.4370000000000001,0.05700000000000001,0.506,1565.4571428573847,7255.245051165932
