z,T,t,fs,x,y,w,rhob,p
0.0,556.2446405481902,298.0,0.0,0.22647904761615814,0.2675209523838418,0.35471950360051907,2200.0,2040.0
0.00222542735042735,576.6415168442978,344.95945717295535,4.914360798303872e-07,0.2264792254184438,0.26752077458155615,0.35471950360051907,2199.9996881627458,2044.619901666952
0.0044508547008547,594.8456071105513,386.5313156898472,2.0213238316683973e-06,0.22647977893404891,0.2675202210659511,0.35471950360051907,2199.9987173834006,2049.488368591506
0.0089017094017094,625.7552363371086,456.4252390540554,1.1577946246618024e-05,0.22648323653388414,0.2675167634661159,0.35471950360051907,2199.992653296909,2059.871347439503
0.0133525641025641,650.7348362464357,512.304631597061,3.498968554232617e-05,0.22649170693507983,0.2675082930649202,0.35471950360051907,2199.9777975449656,2070.9720237219058
0.0178034188034188,671.0652224603643,557.4004390958751,7.633004819257554e-05,0.2265066639381799,0.26749333606182013,0.35471950360051907,2199.9515653131343,2082.645232474331
0.026705128205128204,701.3798569648754,624.0138709947762,0.00021742880392949237,0.22655771367242697,0.26744228632757305,0.35471950360051907,2199.8620321055296,2107.254966916788
0.033381410256410254,717.5520540611247,659.2328410102391,0.0003715281748424033,0.22661346704807978,0.2673865329519202,0.35471950360051907,2199.764249450426,2126.47600081764
0.04005769230769231,729.7478599355981,685.6293243529944,0.0005612699192340459,0.22668211588609524,0.2673178841139047,0.35471950360051907,2199.643850181821,2146.1102628836584
0.04673397435897436,738.9927043016673,705.5275208493307,0.0007809766841236788,0.2267616061119397,0.2672383938880603,0.3547195036005191,2199.5044368234944,2166.000944105878
0.05341025641025641,746.0312915481236,720.5941003867632,0.0010255027556905698,0.2268500759988978,0.2671499240011022,0.3547195036005191,2199.3492745513963,2186.031931444803
0.060086538461538455,751.4114528155563,732.0435867615788,0.001290493232971431,0.22694594993749168,0.2670540500625084,0.3547195036005191,2199.181126736827,2206.117452009657
0.06676282051282051,755.5400506661271,740.771601169879,0.0015723886375217744,0.2270479401032632,0.2669520598967368,0.3547195036005191,2199.002252021408,2226.194385368895
0.07343910256410256,758.7214023843953,747.4444596097924,0.0018683357454195818,0.2271550141956637,0.2668449858043363,0.3547195036005191,2198.814460897999,2246.2165400341955
0.08011538461538462,761.184330142295,752.561157955492,0.002176073910692096,0.22726635430970507,0.26673364569029495,0.3547195036005191,2198.6191878433556,2266.150381824145
0.08679166666666667,763.1015672401924,756.4972287487757,0.002493825028536067,0.22738131712449336,0.26661868287550666,0.3547195036005191,2198.4175611411783,2285.9718395468135
0.09346794871794872,764.6038874104653,759.5363250317025,0.0028201971825190675,0.22749939904264677,0.2665006009573532,0.3547195036005191,2198.2104640220978,2305.6639127002036
0.10014423076923076,765.7905107599656,761.8932825047942,0.003154104244810862,0.22762020710154277,0.26637979289845726,0.3547195036005192,2197.998585680771,2325.2148778563646
0.10682051282051282,766.7368357766981,763.7311413608147,0.003494700542967816,0.22774343533566602,0.26625656466433395,0.3547195036005192,2197.7824627326063,2344.616942916335
0.11349679487179487,767.5002237739144,765.1738147228057,0.0038413286043842178,0.22786884587047523,0.26613115412952476,0.3547195036005192,2197.5625123721497,2363.8652369866127
0.12017307692307691,768.1243489079889,766.3155774834831,0.004193477779008697,0.22799625395204207,0.26600374604795796,0.3547195036005192,2197.339058628743,2382.957052092517
0.13352564102564102,769.0799268166398,767.9662714196727,0.004912843491355559,0.22825652150897383,0.2657434784910262,0.35471950360051924,2196.8825902542994,2420.667963028208
0.14687820512820512,769.7857176541806,769.0759932970917,0.005650576106146361,0.22852343423781946,0.26547656576218054,0.35471950360051924,2196.414467293103,2457.752910433817
0.16023076923076923,770.3474761464684,769.8726675544331,0.006405338605595489,0.22879650840360707,0.2652034915963929,0.3547195036005193,2195.935538140238,2494.2253511956155
0.17358333333333334,770.8266578133624,770.4887076653555,0.007176324198076259,0.2290754521079573,0.2649245478920427,0.35471950360051935,2195.4463147395695,2530.1037280338783
0.18693589743589745,771.2589608746345,771.0010184908384,0.007963044555109293,0.22936008867291874,0.2646399113270812,0.35471950360051935,2194.947106956445,2565.4085819815205
0.20028846153846153,771.6651085038579,771.45423998277,0.008765202995467099,0.22965031075879358,0.26434968924120644,0.3547195036005194,2194.438103047819,2600.1609782888872
0.21364102564102563,772.0571218536622,771.8742645463092,0.009582618726464865,0.22994605295452641,0.2640539470454736,0.35471950360051946,2193.9194177343984,2634.3816717074806
0.24034615384615385,772.8236636728769,772.6683820737031,0.011262825817163822,0.23055395431419642,0.26344604568580354,0.3547195036005195,2192.8532543264746,2701.3071241211774
0.26705128205128204,773.5860854065976,773.4425618698087,0.013003219460679493,0.23118363125587277,0.2628163687441273,0.3547195036005196,2191.7488999713646,2766.3337192388904
0.29375641025641025,774.3535681363835,774.2165188335753,0.014803676008418589,0.2318350390433152,0.2621649609566848,0.3547195036005197,2190.6064331294006,2829.594732903538
0.32046153846153846,775.129223798618,774.9968805082549,0.016664224640085396,0.2325081882337831,0.2614918117662169,0.3547195036005198,2189.42583528481,2891.2090581956354
0.3471666666666667,775.9141421113034,775.7859070684984,0.01858498556747019,0.23320312232007628,0.2607968776799237,0.3547195036005199,2188.2070301580584,2951.282966524001
0.3738717948717949,776.7087448624437,776.5844102047386,0.020566145494127885,0.23391990885181146,0.2600800911481886,0.35471950360052,2186.9498992777408,3009.9118122229947
0.40057692307692305,777.5132370973398,777.3927259994873,0.02260794646503132,0.2346586354012104,0.2593413645987896,0.3547195036005202,2185.6542890559463,3067.181518956821
0.42728205128205127,778.3277566973793,778.2110377427813,0.024710679719140174,0.2354194073389507,0.2585805926610493,0.3547195036005203,2184.320014689075,3123.1698370446106
0.4539871794871795,779.1524236754277,779.0394825280065,0.026874681578197345,0.2362023463467262,0.2577976536532738,0.35471950360052046,2182.9468627665665,3177.947399858681
0.4806923076923077,779.9873562853725,779.8781862488823,0.029100330298475887,0.23700758927820453,0.2569924107217955,0.35471950360052057,2181.534593268604,3231.5786128535365
0.5073974358974359,780.8326762105148,780.7272749998622,0.03138804347521173,0.23783528721994698,0.256164712780053,0.35471950360052074,2180.0829412131147,3284.122405143168
0.5341025641025642,781.6885101854043,781.5868787431382,0.033738275824666465,0.23868560468895583,0.2553143953110441,0.35471950360052096,2178.591618063142,3335.6328683062043
0.5608076923076923,782.5549904687556,782.4571324608542,0.036151517255194277,0.23955871893478342,0.25444128106521663,0.3547195036005211,2177.06031295084,3386.159802311675
0.5875128205128205,783.4322549579032,783.3381765010733,0.03862829117296765,0.2404548193265412,0.2535451806734588,0.3547195036005213,2175.488693752559,3435.7491845311397
0.6142179487179488,784.3204472018502,784.2301566739122,0.04116915298357483,0.24137410681077565,0.25262589318922435,0.3547195036005215,2173.876408039651,3484.443574686063
0.6409230769230769,785.2197163967782,785.1332242781282,0.043774688759155064,0.2423167934292359,0.2516832065707641,0.35471950360052174,2172.2230839242266,3532.2824661255668
0.6676282051282051,786.1302173934478,786.0475361168236,0.04644551404619523,0.24328310188753263,0.2507168981124674,0.354719503600522,2170.5283308156586,3579.3025918954127
0.6943333333333334,787.0521107317794,786.9732545228662,0.04918227279309113,0.2442732651671284,0.24972673483287158,0.35471950360052223,2168.7917401010927,3625.538192527095
0.7210384615384615,787.985562720012,787.9105474047813,0.051985636379699794,0.24528752617422828,0.24871247382577175,0.3547195036005225,2167.0128857612353,3671.021251255529
0.7477435897435898,788.9307455896364,788.8595883253316,0.05485630273368217,0.24632613742007095,0.24767386257992907,0.3547195036005228,2165.191324931076,3715.781701396117
0.7744487179487178,789.8878377880135,789.820556634405,0.05779499552066818,0.24738936072792989,0.2466106392720701,0.3547195036005231,2163.326598413756,3759.8476098250485
0.8011538461538461,790.8570245339165,790.7936376984813,0.06080246339738249,0.24847746696289266,0.24552253303710733,0.35471950360052346,2161.4182311545005,3803.245339872091
0.8278589743589744,791.838498891834,791.7790233108393,0.06387947931915211,0.24959073578131644,0.24440926421868356,0.3547195036005238,2159.465732680027,3845.999696425349
0.8545641025641025,792.832463893095,792.7769124515225,0.06702683989621722,0.2507294553979402,0.24327054460205977,0.3547195036005241,2157.4685975069974,3888.134055646176
0.8812692307692308,793.839136806345,793.7875127398777,0.07024536479803468,0.25189392237036107,0.24210607762963893,0.3547195036005245,2155.4263055200126,3929.670481396515
0.907974358974359,794.8587578867623,794.8110432828269,0.07353589621347655,0.253084441403733,0.240915558596267,0.35471950360052495,2153.33832231414,3970.6298303092326
0.9346794871794871,795.8916085833182,795.8477403801176,0.07689929839209673,0.2543013251847967,0.2396986748152033,0.3547195036005254,2151.2040994859976,4011.0318474443375
0.9613846153846154,796.9380499618318,796.8978691706646,0.08033645732749402,0.25554489426731986,0.2384551057326801,0.35471950360052584,2149.023074834677,4050.895254816476
0.9880897435897437,797.9986047761357,797.961747862814,0.08384828072058657,0.25681547705880975,0.23718452294119025,0.35471950360052634,2146.7946723850428,4090.237836082117
1.0147948717948718,799.0741343584566,799.0397992889234,0.08743569852999046,0.25811341001964094,0.23588658998035908,0.3547195036005269,2144.5183020384984,4129.076523065703
1.0415,800.1662209821264,800.1326640740042,0.09109966480522268,0.2594390383263109,0.23456096167368912,0.35471950360052745,2142.1933584097374,4167.42749513022
1.0682051282051284,801.277985954397,801.2414611457025,0.09484116244402331,0.26079271759264594,0.23320728240735406,0.354719503600528,2139.8192178080194,4205.306313705681
1.0949102564102564,802.4157722146656,802.368429038292,0.09866121500940904,0.26217481814522847,0.2318251818547715,0.3547195036005287,2137.395230738744,4242.728136322504
1.1216153846153847,803.5922507897402,803.518604552239,0.1025609167646167,0.263585735890083,0.23041426410991706,0.35471950360052934,2134.920702844989,4279.708088497064
1.148320512820513,804.8306980153465,804.7040699637787,0.10654151063833865,0.26502592052061097,0.22897407947938903,0.35471950360053,2132.3948454352326,4316.26188648701
1.175025641025641,806.1663808241461,805.9518457742338,0.11060457398618047,0.26649594272635585,0.22750405727364414,0.3547195036005308,2129.8166576097406,4352.406661984049
1.2017307692307693,807.6360100690107,807.3073836340645,0.11475233662036333,0.26799660925660973,0.22600339074339026,0.3547195036005316,2127.1847244570954,4388.161453034065
1.2284358974358975,809.2558096361852,808.8144901611989,0.11898789950987827,0.26952904204644623,0.22447095795355376,0.3547195036005325,2124.4970782795745,4423.546444736322
1.2551410256410256,811.01156224732,810.4829409170616,0.12331495276702645,0.27109457618384203,0.22290542381615802,0.35471950360053345,2121.7513775427747,4458.581001501154
1.2818461538461539,812.8726792758107,812.2870276427815,0.12773710960052834,0.27269451893294694,0.22130548106705308,0.35471950360053445,2118.94532951091,4493.282012931266
1.3085512820512821,814.810664904049,814.1907451314966,0.13225739292492197,0.2743299639886203,0.21967003601137966,0.3547195036005356,2116.0770160151546,4527.663588213227
1.3352564102564102,816.8065459146426,816.1659107763475,0.1368779716335798,0.27600169605962666,0.21799830394037334,0.35471950360053683,2113.1450607997094,4561.73766265654
1.3619615384615384,818.8497766556856,818.1955040566864,0.14159969271407535,0.27771002158729713,0.2162899784127029,0.35471950360053817,2110.1489264146603,4595.514737397445
1.3886666666666667,820.9346454770189,820.2702957089156,0.14642051209979218,0.27945420102536844,0.2145457989746316,0.35471950360053967,2107.0899099078774,4629.004393889179
1.4153717948717948,823.056497915311,822.3843031429902,0.15133077719183424,0.28123074204957543,0.2127692579504246,0.3547195036005413,2103.9741362670443,4662.2155343038
1.442076923076923,825.2068695620117,824.5296512108254,0.1563002155485185,0.28302869204665904,0.21097130795334096,0.35471950360054305,2100.8208146537986,4695.156340862145
1.4687820512820513,827.3645291926383,826.6883722834674,0.1612466265827162,0.2848183107251053,0.20918168927489472,0.354719503600545,2097.6821048635557,4727.833816957574
1.4954871794871796,829.4813402703493,828.8192335631778,0.1659861318440874,0.2865330705951811,0.20746692940481884,0.3547195036005471,2094.674685653562,4760.252607497446
1.5221923076923076,831.4807524783785,830.8522196159479,0.17024115663749542,0.28807254473004074,0.20592745526995923,0.35471950360054944,2091.974690063939,4792.413230321898
1.5488974358974357,833.3007837594917,832.7206327836946,0.17381859630399352,0.28936686758431046,0.20463313241568953,0.354719503600552,2089.704651276703,4824.311636350027
1.575602564102564,834.9384413759715,834.4069384054237,0.1767547903208848,0.29042918683352653,0.20357081316647344,0.3547195036005547,2087.841510336099,4855.94189817387
1.6023076923076922,836.4320797665499,835.9395521101326,0.1792120162558041,0.29131821473676417,0.20268178526323583,0.35471950360055765,2086.28229517071,4887.299589708659
1.6156602564102562,837.1389496808303,836.6615683949502,0.18031147057267236,0.2917159989014761,0.20228400109852387,0.3547195036005592,2085.584644287186,4902.87560048033
1.6290128205128205,837.8256660346462,837.3608060006238,0.18134626447673094,0.2920903888351546,0.2019096111648454,0.35471950360056076,2084.928023206751,4918.383054879373
1.6423653846153847,838.4961917543686,838.0415664413872,0.18232898743527515,0.2924459394253064,0.20155406057469358,0.3547195036005624,2084.304443372856,4933.8221199936015
1.6557179487179488,839.1538238347529,838.7074970649886,0.18326990237868912,0.29278636381501333,0.2012136361849867,0.3547195036005641,2083.707392516334,4949.193067835208
1.6690705128205128,839.8012843926191,839.3616427627655,0.1841773760192756,0.293114689092908,0.20088531090709197,0.35471950360056587,2083.1315615996546,4964.49625461761
1.682423076923077,840.4408168187873,840.0065265480381,0.18505825589883337,0.29343339270953384,0.20056660729046613,0.35471950360056764,2082.5726055640803,4979.732103404352
1.709128205128205,841.7031903500681,841.2764944313228,0.18676182305993197,0.29404974577651444,0.19995025422348553,0.3547195036005714,2081.491619190342,5010.003731529613
1.7358333333333336,842.9523247926852,842.5301848964823,0.1884152610674475,0.29464796204310223,0.1993520379568978,0.35471950360057536,2080.4424419129446,5040.012199961223
1.7491858974358976,843.5745263543583,843.1538269615509,0.1892311239133692,0.2949431424027627,0.1990568575972373,0.35471950360057747,2079.9247419716567,5054.919193790939
1.7625384615384616,844.1962268733014,843.7765258167651,0.19004305133101093,0.29523689891876986,0.19876310108123013,0.3547195036005796,2079.4095392282734,5069.7621656011415
1.7758910256410259,844.818088828121,844.3990112677818,0.19085308119932404,0.2955299688986807,0.19847003110131928,0.3547195036005818,2078.8955405612633,5084.541733074162
1.7892435897435899,845.4406833280367,845.0219095613342,0.1916629731717533,0.29582298898766096,0.19817701101233903,0.3547195036005841,2078.3816293951013,5099.258521316448
1.802596153846154,846.0645058527895,845.6457615796442,0.1924742555081672,0.2961165121123451,0.19788348788765492,0.3547195036005864,2077.8668359834032,5113.91316036676
1.815948717948718,846.6899910862223,846.2710387489929,0.19328827256407358,0.2964110246625036,0.19758897533749642,0.3547195036005888,2077.3503072749854,5128.506283179595
1.829301282051282,847.3175752994784,846.8981869333073,0.19410644661356385,0.2967070412189632,0.1972929587810368,0.3547195036005913,2076.831140775982,5143.038524374317
1.8426538461538462,847.9486960960443,847.5282620765379,0.1949346519589991,0.29700668711282885,0.1969933128871712,0.35471950360059384,2076.305608989788,5157.5105280197595
1.8471047008547008,848.1608970928143,847.7396563848536,0.1952173409641762,0.297108964404456,0.196891035595544,0.3547195036005947,2076.1262307007605,5162.321265111802
1.8482174145299144,848.2141188555607,847.7926454451803,0.19528861264969233,0.2971347506035327,0.19686524939646727,0.3547195036005949,2076.081005761799,5163.522919811348
1.8493301282051282,848.2673141554519,847.8456429285275,0.1953596724139006,0.29716046012917324,0.19683953987082675,0.3547195036005951,2076.035915295991,5164.724163535733
1.850442841880342,848.3202749813129,847.8985375707281,0.1954295512505799,0.29718574239352286,0.19681425760647717,0.35471950360059534,2075.99157417931,5165.924996343803
1.8515555555555556,848.3725306042239,847.9510729783509,0.195496069527489,0.2972098088024789,0.1967901911975211,0.35471950360059556,2075.9493654818284,5167.125417546761
1.8526682692307692,848.4233434106734,848.0028349048812,0.1955558474823672,0.29723143655315887,0.1967685634468411,0.3547195036005958,2075.911433807546,5168.325425042259
1.853780982905983,848.472226839915,848.0535125416524,0.19560676236590635,0.29724985763178774,0.19675014236821226,0.354719503600596,2075.879126131874,5169.525015199135
1.8548936965811968,848.5194703060403,848.103187936514,0.19565036861142054,0.29726563443459053,0.1967343655654095,0.35471950360059623,2075.851456100256,5170.724184153318
1.8560064102564104,848.5657274444176,848.1521530814282,0.19568987402614801,0.29727992755087346,0.19672007244912654,0.35471950360059645,2075.8263882215224,5171.922929248767
1.857119123931624,848.6114763955692,848.2006376723773,0.19572757949599828,0.2972935694444921,0.19670643055550788,0.3547195036005967,2075.802462484953,5173.121249171889
1.8582318376068376,848.6569561885697,848.2487654965723,0.19576460995328945,0.2973069671175889,0.19669303288241108,0.3547195036005969,2075.7789650727827,5174.319143410149
1.860457264957265,848.7474654917323,848.3441704002411,0.1958382293809971,0.2973336027331917,0.19666639726680835,0.35471950360059734,2075.7322503907835,5176.7136544281375
1.8693589743589742,849.1061395050724,848.7173809692607,0.1961348331000722,0.2974409143884656,0.1965590856115344,0.3547195036005991,2075.5440426194427,5186.274681975325
1.8827115384615385,849.6386811143194,849.2615592274648,0.1965875832335833,0.29760472004270383,0.1963952799572962,0.3547195036006019,2075.256753256153,5200.5653507456245
1.8960641025641027,850.1693114459098,849.7972234159606,0.19704953960719296,0.2977718565279474,0.19622814347205259,0.3547195036006047,2074.963622138967,5214.795386146366
1.9094166666666668,850.7009052659093,850.3305599063873,0.19752098184554195,0.2979424250127966,0.19605757498720341,0.3547195036006076,2074.664471834067,5228.965342339477
1.9227692307692308,851.2349581206005,850.8646998224317,0.19800228934380745,0.29811656276297616,0.19588343723702387,0.3547195036006106,2074.3590615989533,5243.075821255669
1.936121794871795,851.7722775045543,851.4012592940054,0.19849386462736063,0.2982944154127484,0.19570558458725154,0.35471950360061366,2074.0471360140273,5257.127445169617
1.949474358974359,852.3133301410323,851.9411045871443,0.1989961196301924,0.2984761320004283,0.1955238679995717,0.35471950360061677,2073.728433689516,5271.120843213805
1.962826923076923,852.8584143913876,852.4847313341182,0.1995094706731217,0.2986618631514911,0.19533813684850893,0.35471950360062,2073.4026904520183,5285.0566448059735
1.9761794871794873,853.4077456535546,853.0324522842893,0.20003433624477474,0.2988517602757281,0.1951482397242719,0.3547195036006233,2073.0696407525656,5298.9354764849995
1.9895320512820516,853.9614986324133,853.5844901776239,0.2005711360682098,0.29904597522954984,0.1949540247704501,0.35471950360062665,2072.7290182588895,5312.75796042399
2.0028846153846156,854.5198282651679,854.1410236609574,0.2011202907975559,0.2992446602062298,0.19475533979377022,0.35471950360063015,2072.380556047917,5326.524713767514
2.0162371794871796,855.0828800954918,854.7022099903681,0.201682222027263,0.29944796773925053,0.1945520322607494,0.3547195036006337,2072.0239865999006,5340.236348373142
2.0295897435897436,855.6507954384438,855.2681962708291,0.20225735245801524,0.29965605076233215,0.19434394923766782,0.35471950360063736,2071.659041693141,5353.893470750929
2.042942307692308,856.2237139772055,855.839125042756,0.20284610614323645,0.2998690626986177,0.1941309373013823,0.35471950360064114,2071.2854522475673,5367.496682099571
2.056294871794872,856.8017750962571,856.415137084718,0.20344890878053773,0.30008715756611953,0.19391284243388043,0.35471950360064497,2070.902948139801,5381.046578389582
2.069647435897436,857.3851185946445,856.9963728478876,0.20406618803075766,0.30031049009314875,0.19368950990685124,0.3547195036006489,2070.5112580007117,5394.543750469235
2.083,857.9738850969263,857.5829732200569,0.20469837385782802,0.30053921584127874,0.19346078415872126,0.35471950360065296,2070.110108999757,5407.9887841814825
2.096352564102564,858.5682163181788,858.1750799628759,0.20534589888601573,0.3007734913345961,0.19322650866540395,0.3547195036006572,2069.6992266182997,5421.382260486092
2.1097051282051282,859.1682552599727,858.772835991318,0.2060091987728286,0.3010134741946181,0.19298652580538184,0.35471950360066146,2069.2783344129784,5434.724755584357
2.1364102564102567,860.3860357224552,859.9858745269183,0.20738488327275129,0.30151119883974936,0.1924888011602506,0.35471950360067034,2068.4054036398707,5461.259083929782
2.1631153846153848,861.6284022638965,861.2232623171026,0.2088289884590526,0.3020336781883386,0.19196632181166137,0.3547195036006798,2067.48905700894,5487.596288464457
2.189820512820513,862.8965611588789,862.486202311383,0.21034515043126248,0.30258222778646365,0.1914177722135363,0.3547195036006897,2066.5269872592025,5513.740820428012
2.216525641025641,864.1917541657116,863.7759319368838,0.21193709475633402,0.3031581955496457,0.1908418044503543,0.3547195036007002,2065.5168303587593,5539.697067174233
2.2432307692307694,865.5152637506353,865.0937283050607,0.21360865159978135,0.3037629672373167,0.1902370327626833,0.35471950360071125,2064.4561559034414,5565.469356337917
2.269935897435898,866.8684185322517,866.4409136411408,0.21536377130501322,0.3043979720894452,0.1896020279105548,0.354719503600723,2063.342457231056,5591.061960057864
2.296641025641026,868.2525988947539,867.8188608954966,0.21720654019566032,0.30506468854384083,0.18893531145615916,0.3547195036007354,2062.173141394131,5616.479099262994
2.323346153846154,869.6692427133579,869.2289994821607,0.21914119638302834,0.30576464995531416,0.18823535004468586,0.35471950360074855,2060.945519129409,5641.724948025614
2.350051282051282,871.1198511409742,870.672821092091,0.22117214538815794,0.3064994502477602,0.18750054975223981,0.3547195036007625,2059.6567949449827,5666.803637983137
2.3767564102564105,872.6059275963555,872.1518346550104,0.2233037130233274,0.30727065450632834,0.18672934549367162,0.35471950360077725,2058.304223927569,5691.719261597663
2.4034615384615385,874.129182658237,873.6677064222082,0.2255409907154993,0.30808010481667003,0.18591989518333,0.3547195036007929,2056.8845753485566,5716.475876975871
2.4301666666666666,875.6913631188837,875.2221851637756,0.22788900561485917,0.3089296200090055,0.18507037999099452,0.35471950360080956,2055.3946592657026,5741.077516509374
2.456871794871795,877.2942764194938,876.8170688282362,0.2303529553575657,0.30982108059562713,0.18417891940437287,0.35471950360082727,2053.831177556109,5765.528188460114
2.483576923076923,878.9398221174722,878.4542435275314,0.23293828511275633,0.31075645664661766,0.1832435433533823,0.3547195036008461,2052.190675026594,5789.831881477977
2.5236346153846156,881.4924776287643,880.9936699844263,0.2370564161228741,0.3122464024123253,0.18175359758767468,0.3547195036008766,2049.5775444093456,5826.020525490831
2.5636923076923077,884.1527741589566,883.6398832635707,0.2414809408339477,0.3138472018629336,0.18015279813706636,0.3547195036009102,2046.7699938576816,5861.900781302013
2.60375,886.9284831403725,886.400599163837,0.24623369581937574,0.31556675550233426,0.17843324449766568,0.3547195036009473,2043.754167129928,5897.486012322919
2.6438076923076923,889.8279965002275,889.2841513198919,0.2513380432247388,0.31741351578864463,0.1765864842113554,0.35471950360098825,2040.5152399434794,5932.789608247567
2.6705128205128204,891.8342305829224,891.279176847174,0.2549485324423289,0.31871979601835376,0.1752802039816462,0.354719503601018,2038.224229799666,5956.175515536405
2.697217948717949,893.9023598897725,893.3356218374712,0.25873415844804026,0.3200894409917383,0.1739105590082617,0.3547195036010499,2035.8220878579277,5979.446240530933
2.723923076923077,896.0353919503448,895.4564749566533,0.26270307452050073,0.3215254005768178,0.17247459942318225,0.3547195036010842,2033.3036405135485,6002.605820361579
2.737275641025641,897.1272285461157,896.5420306489954,0.26475891003878305,0.3222692048457735,0.1717307951542265,0.3547195036011022,2031.9991247699618,6014.145200930036
2.750628205128205,898.2367035107814,897.6448622963093,0.2668647124361956,0.32303075158303685,0.17096924841696318,0.3547198392220732,2030.6629029001297,6025.658323550813
2.763980769230769,899.3685821625421,898.7670288166547,0.2690366095230799,0.32381044260214653,0.17018955739785346,0.3547259437156054,2029.2847411171977,6037.145743978671
2.7773333333333334,900.5270259664858,899.9131016059079,0.2712834061809308,0.3246086943802943,0.16939130561970564,0.3547405862233885,2027.859052346506,6048.60811633524
2.8040384615384615,902.9315677457454,902.288661410025,0.2760131134851907,0.32626266476980054,0.1677373352301995,0.3547978307888824,2024.8578503602114,6071.460565090232
2.8307435897435895,905.4634572776887,904.7878402175321,0.2810783850043462,0.32799639515764717,0.16600360484235283,0.3548967229751447,2021.6437184982422,6094.221625784507
2.8574487179487176,908.1347261491678,907.4230700307417,0.2865063635087183,0.32981382764645784,0.1641861723535421,0.3550431409731779,2018.199433509568,6116.89760806014
2.884153846153846,910.9581559978778,910.2070089126818,0.292326821613441,0.33171907454024635,0.16228092545975362,0.3552437442542579,2014.5061033939169,6139.495167027058
2.89750641025641,912.4312165033336,911.6589988367219,0.2953942759559515,0.3327059465184198,0.1612940534815802,0.3553666817012801,2012.5596721512647,6150.766718973827
2.9108589743589746,913.947565405806,913.1534399492909,0.2985722273302184,0.3337163530957134,0.16028364690428665,0.3555060625353577,2010.5431258063766,6162.021331912874
2.9242115384615386,915.5089918755176,914.6922685368554,0.3018650864262722,0.3347507960750684,0.15924920392493158,0.3556629807475926,2008.4536655873976,6173.25994685491
2.9375641025641026,917.1171450511109,916.2775041295656,0.3052772733257707,0.3358097130086595,0.15819028699134047,0.3558385979777579,2006.2884867630844,6184.483528336077
2.9509166666666666,918.7732507303921,917.9112368379025,0.3088129769473074,0.33689338659202495,0.15710661340797508,0.35603414708713127,2004.0449312850642,6195.69305900446
2.9642692307692307,920.4774742084438,919.595593614085,0.3124755993654525,0.3380017399993204,0.15599826000067954,0.3562509357770651,2001.720840391219,6206.889525809995
2.977621794871795,922.2274973177377,921.3326257114243,0.31626648932102785,0.3391338751123893,0.15486612488761073,0.35649035014209984,1999.315358247694,6218.073887432607
2.990974358974359,924.0154504962338,923.1238226865567,0.3201821644874786,0.34028706509932927,0.1537129349006707,0.3567538571033447,1996.830694539931,6229.247000606824
3.004326923076923,925.8219928337877,924.967891372607,0.32420887042630947,0.3414547915830791,0.15254520841692087,0.35704299866208633,1994.2755770486312,6240.409462605676
3.017679487179487,927.6080815552104,926.8522832580782,0.3283149186264045,0.3426240201840182,0.15137597981598178,0.35735934424871385,1991.6701134921766,6251.561314884872
3.031032051282051,929.3136657759925,928.7333410170326,0.33244947977973943,0.3437749511834358,0.15022504881656415,0.35770430346465404,1989.0465572449077,6262.701634717873
3.0443846153846152,930.8814569219119,930.5263796289771,0.33656510046166616,0.3448895661522451,0.14911043384775494,0.35807872602120655,1986.4350195384816,6273.828327316576
3.0577371794871793,932.2959371680943,932.1532874350156,0.34065345592468654,0.34596485890506784,0.14803514109493215,0.3584826061980438,1983.840782781961,6284.938579406284
3.0710897435897433,933.5897065722845,933.6035464754559,0.3447473209136447,0.3470132426732636,0.1469867573267364,0.3589153887139745,1981.2430499951106,6296.0297997083935
3.0844423076923073,934.8139092389396,934.9237388500311,0.3488904682634706,0.3480510160654376,0.1459489839345624,0.35937661203548826,1978.614045438188,6307.100271993868
3.0977948717948713,936.012977638965,936.1728527438279,0.3531167920237359,0.3490904332580914,0.14490956674190858,0.35986628490232386,1975.9322618841386,6318.14922635475
3.1111474358974354,937.217510791969,937.3977623527339,0.35744759275968513,0.35013869305791434,0.14386130694208565,0.3603849150831571,1973.184183211433,6329.176608902004
3.1245,938.4465351259504,938.6294796338373,0.36189568062656535,0.35119953793160846,0.14280046206839156,0.3609333948440137,1970.3616808275603,6340.182825800506
3.151205128205128,941.0196845691158,941.1815463538842,0.37117472329863993,0.35336540230694247,0.14063459769305753,0.36212470155075405,1964.4737305788717,6362.134650576678
3.177910256410256,943.7837188197582,943.9084586238536,0.38100138876776085,0.355594151315372,0.13840584868462805,0.3634512543457569,1958.2382901959086,6384.011749896842
3.2046153846153844,946.7671226718318,946.8460748001254,0.3914154437273716,0.3578875501688329,0.1361124498311671,0.3649256756643873,1951.6301260073942,6405.822396179409
3.231320512820513,949.9939549421341,950.0198597081869,0.40245686153963256,0.36024636621767403,0.13375363378232602,0.3665616605766389,1944.6238732018944,6427.57561843893
3.258025641025641,953.4886472398874,953.4541559380081,0.41416709386185235,0.3626709940974714,0.1313290059025286,0.36837381171660427,1937.1932289263464,6449.281130513359
3.2713782051282054,955.344474024485,955.2769042867892,0.4202863553006203,0.3639080278893709,0.13009197211062912,0.36935073557873205,1933.3102952893864,6460.119223372901
3.2847307692307695,957.2771132597796,957.174470866673,0.4265889627600458,0.36516152215464615,0.12883847784535382,0.3703775338233865,1929.3110207446325,6470.949354634536
3.2980833333333335,959.2900625601907,959.1502998922364,0.433080405361451,0.36643143362648584,0.1275685663735142,0.37145623568942593,1925.1919222093582,6481.77294481216
3.3114358974358975,961.3869170532747,961.2079370759953,0.4397661862628445,0.36771769359640083,0.1262823064035992,0.37258890093587976,1920.9495076939568,6492.591464115278
3.3247884615384615,963.5713624754303,963.3510241538272,0.44665179509786984,0.3690202056282616,0.12497979437173837,0.373777612156283,1916.5802937906117,6503.406433676566
3.3381410256410255,965.8471661813766,965.5832912305045,0.45374267612861796,0.3703388430923646,0.12366115690763538,0.3750244657222515,1912.0808258817008,6514.219426641474
3.3514935897435896,968.2181659226314,967.9085469207286,0.46104419172218986,0.37167344651408907,0.12232655348591094,0.37633156122059197,1907.4477013154824,6525.03206908545
3.364846153846154,970.6882561817154,970.3306661240322,0.46856158076128995,0.37302382073020834,0.12097617926979166,0.3777009892498833,1902.6775957963573,6535.846040721682
3.378198717948718,973.2613718147348,972.853575205547,0.4762999116118594,0.37438973184629853,0.1196102681537015,0.3791348174466902,1897.7672932289204,6546.663075358621
3.391551282051282,975.9414687389366,975.4812343219817,0.4842640292969289,0.37577090399001195,0.11822909600998806,0.38063507461971197,1892.7137192384143,6557.4849610626
3.404903846153846,978.7325013973457,978.2176166175869,0.4924584965677949,0.37716701585697304,0.11683298414302701,0.38220373288335385,1887.5139785635954,6568.313539976548
3.41825641025641,981.6383967378752,981.066684012378,0.5008875286240863,0.3785776970486663,0.11542230295133367,0.3838426877014638,1882.1653964796476,6579.15070774172
3.4316089743589746,984.663024459519,984.0323593128772,0.5095549213160351,0.38000252420496533,0.11399747579503469,0.3855537357782817,1876.6655643569193,6589.998412465179
3.4449615384615386,987.8101633045845,987.118494394558,0.5184639727679228,0.38144101693794513,0.11255898306205483,0.3873385507678757,1871.0123893942057,6600.858653172076
3.4583141025641027,991.0834632148536,990.3288342363079,0.5276173984934331,0.38289263357841324,0.11110736642158675,0.3891986568162234,1865.2041484816955,6611.733477678537
3.471666666666667,994.4864032227011,993.6669766322457,0.5370172402330025,0.3843567667522153,0.10964323324778472,0.3911354000021271,1859.2395460475784,6622.624979818413
3.485019230769231,998.0222450169197,997.1363274667556,0.5466647689307923,0.3858327388098857,0.1081672611901143,0.39314991780449104,1853.117775623315,6633.5352959555885
3.498371794871795,1001.6939822084139,1000.740051516134,0.5565603824838322,0.38731979714061493,0.10668020285938508,0.39524310679384683,1846.8385847261877,6644.4666007132455
3.511724358974359,1005.5042854235095,1004.4810188357736,0.5667034991358011,0.38881710940978736,0.10518289059021266,0.3974155888245301,1840.4023425055143,6655.42110185257
3.525076923076923,1009.4554434722122,1008.3617469057501,0.5770924476484925,0.3903237587684508,0.1036762412315492,0.3996676760890889,1833.8101094335607,6666.401034236393
3.5384294871794872,1013.5493009741473,1012.3843388395488,0.587724355658664,0.3918387390929014,0.1021612609070986,0.4019993354860442,1827.0637081479067,6677.408652818229
3.5517820512820513,1017.7871929738823,1016.5504181089467,0.5985950379078134,0.39336095032295254,0.10063904967704743,0.40441015284299325,1820.1657943744392,6688.446224604509
3.5651346153846157,1022.1698772363623,1020.8610603999733,0.6096988863062174,0.3948891939781831,0.09911080602181692,0.4068992976253703,1813.1199266864348,6699.516019547634
3.5784871794871798,1026.697465077471,1025.3167233862266,0.6210287640469336,0.3964221689422438,0.09757783105775616,0.4094654888424332,1805.9306336937616,6710.62030034001
3.591839743589744,1031.3693517481972,1029.9171753810804,0.6325759062054386,0.39795846761580134,0.09604153238419866,0.4121069629311242,1798.603477116669,6721.761311094481
3.605192307692308,1036.1841475463436,1034.6614240024794,0.6443298294301352,0.39949657254849613,0.09450342745150382,0.41482144445000696,1791.1451090910323,6732.941264914533
3.618544871794872,1041.1396109691138,1039.5476461450473,0.6562782534322718,0.40103485366894576,0.09296514633105424,0.41760612044420214,1783.563321986362,6744.162330378153
3.631897435897436,1046.2325853348375,1044.573120695126,0.6684070370060617,0.40257156623881885,0.09142843376118114,0.42045761934329984,1775.8670890037822,6755.426616981958
3.64525,1051.4589403841119,1049.734165535924,0.6807001312387946,0.4041048496618446,0.08989515033815532,0.4233719952237007,1768.0665938662173,6766.736159616825
3.6586025641025643,1056.8135204121631,1055.0260804631566,0.6931395523980001,0.4056327272807808,0.0883672727192192,0.4263447182021851,1760.173248022652,6778.09290217196
3.6719551282051284,1062.2901004788969,1060.4430976583772,0.7057053767047542,0.40715310729437526,0.08684689270562473,0.42937067162792497,1752.199693964689,6789.498680390798
3.6853076923076924,1067.8813521865836,1065.9783413412904,0.7183757588212846,0.40866378492180655,0.08533621507819342,0.4324441566068866,1744.1597934953738,6800.955204128154
3.6986602564102564,1073.5788204054147,1071.6237981395825,0.7311269754056609,0.4101624459336477,0.08383755406635231,0.43555890422901666,1736.0686000918763,6812.464039183068
3.7120128205128204,1079.372912165113,1077.37029957396,0.7439334945312207,0.4116466716558831,0.08235332834411693,0.438708095680274,1727.942314855889,6824.0265889047505
3.7253653846153845,1085.2528987199555,1083.2075178589416,0.7567680711535912,0.41311394553685526,0.08088605446314476,0.44188439021578996,1719.7982259357111,6835.6440757891505
3.7387179487179485,1091.2069315411948,1089.123975971401,0.7696018681580686,0.41456166134634737,0.07943833865365263,0.4450799607559027,1711.6546317164987,6847.317523300052
3.752070512820513,1097.2201184309372,1095.1052859163688,0.7823999755669393,0.4159866194735853,0.07801338052641472,0.4482853764308727,1703.5336840752527,6859.05201342692
3.765423076923077,1103.2694611745621,1101.1292162700759,0.7951103971447573,0.41738384512618365,0.07661615487381634,0.45148679971976957,1695.4683768517739,6870.867303516512
3.778775641025641,1109.338909390704,1107.1795924954429,0.8076996229732071,0.41875053832282355,0.07524946167717642,0.4546749066669172,1687.4799735253725,6882.765394495898
3.7921282051282055,1115.4126288731545,1113.240591352338,0.8201354578146147,0.42008409457580026,0.07391590542419975,0.4578406534763859,1679.5889033541494,6894.746368910637
3.8054807692307695,1121.4742399216323,1119.29588611872,0.8323854546394687,0.4213819187618126,0.07261808123818743,0.460974895889191,1671.8157553689152,6906.8100316257105
3.8188333333333335,1127.506884634584,1125.3286563705951,0.8444171460385561,0.4226414422463962,0.07135855775360384,0.4640684557841053,1664.1811315322773,6918.955900246559
3.8321858974358975,1133.4933267706253,1131.3216684005497,0.8561982727901737,0.42386014065263594,0.07013985934736401,0.4671121861048951,1656.7055017029436,6931.183197073956
3.8455384615384616,1139.41606584501,1137.25738435624,0.8676970071162871,0.4250355521205118,0.0689644478794882,0.4700970333753761,1649.409061970125,6943.490843002078
3.858891025641026,1145.2574574789464,1143.11808345123,0.8788821674394902,0.4261652958681192,0.06783470413188085,0.4730140968375721,1642.3115983810387,6955.877453559756
3.87224358974359,1150.9998357500178,1148.8859877793675,0.8897234213635056,0.4272470908533251,0.06675290914667495,0.47585468322869756,1635.4323581410831,6968.341337194259
3.885596153846154,1156.6256346185141,1154.543388577684,0.9001914737516987,0.42827877433519623,0.06572122566480378,0.4786103562668095,1628.7899302699577,6980.880495834687
3.898948717948718,1162.1175059628144,1160.0727699732504,0.9102582370131693,0.4292583201464021,0.06474167985359791,0.48127297998815755,1622.4021375478433,6993.492627722557
3.912301282051282,1167.4584318980992,1165.4569276752839,0.9198969809489386,0.43018385651104163,0.06381614348895838,0.48383475514392615,1616.285941431572,7006.175132451485
3.925653846153846,1172.6318290648653,1170.6790802191852,0.9290824597120081,0.43105368327871885,0.06294631672128115,0.4862882479004915,1610.4573614930289,7018.92511811265
3.93900641025641,1177.6216425085229,1175.722970396153,0.9377910135484111,0.4318662884983345,0.062133711501665426,0.48862641007568985,1604.9314108600952,7031.739410396501
3.9523589743589747,1182.4124266226966,1180.5729544499156,0.9460006429563053,0.4326203643291308,0.061379635670869216,0.49084259005864,1599.7220491595263,7044.614563453032
3.9657115384615387,1186.989410356333,1185.214076476874,0.9536910526490459,0.43331482239059665,0.06068517760940336,0.4929305333657413,1594.8421546204954,7057.546872261274
3.9790641025641027,1191.3385434120644,1189.6321251785935,0.9608436621171346,0.43394880880160663,0.06005119119839335,0.4948843714228637,1590.3035173725873,7070.532386201166
3.992416666666667,1195.446519359697,1193.8136695980465,0.9674415784586778,0.434521719378565,0.05947828062143502,0.4966985965372237,1586.116856686035,7083.566923453452
4.005769230769231,1199.300770227228,1197.7460695735656,0.9734695251553864,0.4350332157999473,0.058966784200052684,0.49836801996389635,1582.2918661664005,7096.646085768664
4.0102200854700865,1200.5270666454342,1198.9994311558576,0.9753497584609785,0.43519004907811965,0.05880995092188035,0.498891457819737,1581.098777552575,7101.014933689499
4.014670940170941,1201.7234236521626,1200.2233638808498,0.9771646428287626,0.43534005541111975,0.05865994458888028,0.4993980792803745,1579.9471556404576,7105.388055246396
4.019121794871795,1202.889424679306,1201.4174548632648,0.9789137168909777,0.43548324406041916,0.05851675593958082,0.49988770816081296,1578.837293187665,7109.765273043886
4.02357264957265,1204.0246596259806,1202.581299259005,0.9805965332721389,0.4356196283056939,0.05838037169430609,0.5003601693202778,1577.7694740731163,7114.146407467291
4.028023504273504,1205.128724122267,1203.7144997300572,0.9822126572629668,0.4357492255866068,0.05825077441339321,0.5008152880406592,1576.743974138479,7118.531276728158
4.032474358974359,1206.2012186633247,1204.8166658126556,0.9837616653090191,0.43587205766469844,0.05812794233530159,0.5012528893178056,1575.7610621471997,7122.919696905311
4.036925213675214,1207.241747594035,1205.8874131761102,0.9852431432855177,0.4359881508100228,0.05801184918997718,0.5016727970507182,1574.8210008791982,7127.3114819807015
4.041376068376068,1208.2499179200001,1206.9263627572748,0.986656684523542,0.43609753601836004,0.05790246398163995,0.5020748331102125,1573.924048383333,7131.706443869154
4.045826923076923,1209.2253379152307,1207.9331397526728,0.9880018875448109,0.43620024926641116,0.057799750733588805,0.5024588162641636,1573.0704594147799,7136.104392440906
4.0502777777777785,1210.1676154899021,1208.9073724466812,0.9892783534523147,0.43629633181448857,0.05770366818551142,0.502824560930743,1572.260487090787,7140.505135535712
4.054728632478633,1211.0763562726997,1209.8486908497778,0.9904856829115058,0.43638583056906766,0.057614169430932366,0.5031718757236575,1571.494384806239,7144.908478967005
4.059179487179487,1211.95116135092,1210.7567251155574,0.991623472640971,0.43646879852149695,0.05753120147850306,0.5035005617437589,1570.7724084604765,7149.314226514349
4.0636303418803426,1212.791624596973,1211.631103698927,0.9926913113117838,0.43654529528466673,0.05745470471533329,0.5038104105587554,1570.0948190593313,7153.722179902044
4.068081196581197,1213.5973294913447,1212.4714512106586,0.9936887747304239,0.43661538775729036,0.05738461224270964,0.5041012017961038,1569.4618857717717,7158.132138761302
4.072532051282051,1214.3678453285095,1213.2773859156841,0.994615420151088,0.4366791509569036,0.057320849043096415,0.5043727002521947,1568.8738895389852,7162.543900572844
4.076982905982906,1215.102722663017,1214.0485168152604,0.9954707795307718,0.4367366690797793,0.05726333092022068,0.5046246523921187,1568.3311273543165,7166.957260586037
4.079950142450142,1215.5726089923364,1214.5430699261647,0.9960011698293753,0.4367715913110823,0.057228408688917744,0.5047816261392708,1567.99457197884,7169.900286317677
4.0829173789173785,1216.0262984381504,1215.021852093809,0.9964994968076016,0.4368038108425914,0.057196189157408636,0.5049297020304515,1567.678362154285,7172.843868405165
4.085884615384615,1216.4636362476979,1215.4847359479702,0.996965591910865,0.43683336143840906,0.05716663856159096,0.5050687853182652,1567.3826048357598,7175.78794436898
4.09033547008547,1217.0886244989879,1216.148962601391,0.9976039024501197,0.43687276468238134,0.05712723531761868,0.5052603237521686,1566.9775694424368,7180.204846321834
4.094786324786324,1217.6758605969549,1216.776652767949,0.9981686180262633,0.436906386687169,0.05709361331283095,0.5054310166609799,1566.6192332072776,7184.622502423057
4.099237179487179,1218.2246928329187,1217.3673078330523,0.9986589929367164,0.4369343905613465,0.05706560943865354,0.5055804311398512,1566.3080693105273,7189.040694332911
4.105913461538462,1218.9743291939901,1218.182671564751,0.9992533076811209,0.4369662963394947,0.05703370366050532,0.5057635492972615,1565.9309511345707,7195.668500376447
4.112589743589743,1219.6331296286285,1218.911553473108,0.9996752746392011,0.43698685463344195,0.05701314536655805,0.5058956592600862,1565.6631950153708,7202.296245662177
4.117040598290598,1220.020378575943,1219.3484602502451,0.9998593396705141,0.43699484866163774,0.05700515133836221,0.5059542602268895,1565.5463978645016,7206.7143200467335
4.121491452991453,1220.3653260745727,1219.7456911114937,0.9999655856493129,0.436998907889015,0.057001092110984926,0.505988640948569,1565.4789802375544,7211.13177808661
4.122604166666667,1220.4450070505986,1219.8388198672503,0.9999803213078068,0.43699940451093305,0.05700059548906698,0.5059934757092429,1565.469629830712,7212.23601818342
4.12371688034188,1220.5221631876102,1219.929517634774,0.9999906221734408,0.43699973144455334,0.057000268555446695,0.5059968756437327,1565.4630934900015,7213.340201158636
4.124829594017093,1220.5969221795117,1220.0178340892992,0.9999968282988346,0.4369999149704608,0.05700008502953919,0.5059989375029841,1565.4591554374624,7214.444323520691
4.1253859508547,1220.6334706036246,1220.0611239864456,0.9999985700887718,0.43699996314802103,0.05700003685197897,0.5059995195075466,1565.458050197099,7214.996360945365
4.125942307692307,1220.6695237108138,1220.1038548001952,0.999999552277713,0.4369999890203717,0.05700001097962833,0.5059998489925778,1565.457426956122,7215.548382033115
4.126313212250712,1220.693316437581,1220.1320416638696,0.9999998661045436,0.43699999690216274,0.057000003097837294,0.5059999546537888,1565.4572278195483,7215.916386852174
4.126684116809116,1220.716946395403,1220.1599975784652,0.9999999850374746,0.4369999997721178,0.057000000227882194,0.5059999948139404,1565.4571523515065,7216.284384181039
4.1267768429487175,1220.7228325015885,1220.1669516199581,0.9999999943471536,0.43699999998934935,0.057000000010650635,0.5059999979649643,1565.457146444116,7216.3763823345635
4.126823206018518,1220.725772789656,1220.1704235211537,0.9999999970336864,0.4370000000513914,0.056999999948608625,0.5059999988749136,1565.4571447393957,7216.422381233867
4.126869569088319,1220.7287113534014,1220.1738920412593,0.9999999987024214,0.43700000008964324,0.05699999991035676,0.5059999994404125,1565.4571436805122,7216.468380014727
4.12696229522792,1220.7345836949023,1220.1808190398888,0.999999999944518,0.4370000001177209,0.056999999882279065,0.5059999998617273,1565.4571428923484,7216.560377220732
4.1270550213675214,1220.7404503064379,1220.1877328223825,1.0000000000013223,0.43700000011873164,0.05699999988126835,0.5059999998812683,1565.457142856304,7216.65237395187
4.127147747507123,1220.746311662204,1220.1946335516182,1.0000000000013223,0.43700000011845586,0.056999999881544146,0.5059999998815441,1565.457142856304,7216.744370207513
4.127240473646724,1220.7521678232831,1220.2015213283155,1.0000000000013223,0.43700000011818,0.05699999988181997,0.50599999988182,1565.457142856304,7216.836365987063
4.1273331997863245,1220.75801882854,1220.208396249129,1.0000000000013223,0.4370000001179042,0.05699999988209582,0.5059999998820959,1565.457142856304,7216.928361289922
4.127425925925926,1220.7638647165502,1220.215258409993,1.0000000000013223,0.4370000001176283,0.05699999988237171,0.5059999998823718,1565.457142856304,7217.020356115501
4.127611378205128,1220.7755412936988,1220.2289448320398,1.0000000000013223,0.4370000001170764,0.0569999998829236,0.5059999998829237,1565.457142856304,7217.204344332477
4.12779683048433,1220.7871978576238,1220.2425813477266,1.0000000000013223,0.4370000001165244,0.05699999988347562,0.5059999998834757,1565.457142856304,7217.388330633359
4.127982282763533,1220.798834706724,1220.2561686991396,1.0000000000013223,0.43700000011597223,0.05699999988402778,0.5059999998840278,1565.457142856304,7217.572315013581
4.128167735042735,1220.8104521349671,1220.2697076173458,1.0000000000013223,0.43700000011541995,0.05699999988458008,0.5059999998845801,1565.457142856304,7217.756297468652
4.128353187321936,1220.822050431957,1220.2831988225578,1.0000000000013223,0.4370000001148675,0.05699999988513251,0.5059999998851326,1565.457142856304,7217.94027799415
4.128538639601139,1220.833629882998,1220.2966430242948,1.0000000000013223,0.43700000011431495,0.056999999885685076,0.5059999998856851,1565.457142856304,7218.124256585722
4.128724091880342,1220.845190769159,1220.3100409215394,1.0000000000013223,0.4370000001137622,0.05699999988623779,0.5059999998862378,1565.457142856304,7218.308233239082
4.128909544159543,1220.856733367336,1220.3233932028984,1.0000000000013223,0.4370000001132094,0.05699999988679062,0.5059999998867907,1565.457142856304,7218.492207950011
4.129094996438745,1220.8682579503143,1220.3367005467528,1.0000000000013223,0.4370000001126564,0.056999999887343604,0.5059999998873436,1565.457142856304,7218.676180714357
4.129280448717948,1220.8797647868296,1220.3499636214124,1.0000000000013223,0.43700000011210327,0.05699999988789672,0.5059999998878967,1565.457142856304,7218.860151528031
4.12946590099715,1220.891254141629,1220.3631830852635,1.0000000000013223,0.43700000011155005,0.05699999988844997,0.50599999988845,1565.457142856304,7219.044120387007
4.129651353276353,1220.9027262755276,1220.3763595869184,1.0000000000013223,0.43700000011099666,0.05699999988900335,0.5059999998890033,1565.457142856304,7219.228087287324
4.129836805555556,1220.9141814454701,1220.389493765359,1.0000000000013223,0.43700000011044315,0.056999999889556875,0.5059999998895569,1565.457142856304,7219.412052225082
4.130022257834757,1220.9256199045858,1220.4025862500798,1.0000000000013223,0.4370000001098895,0.05699999989011053,0.5059999998901106,1565.457142856304,7219.596015196441
4.130207710113959,1220.9370419022478,1220.4156376612302,1.0000000000013223,0.4370000001093357,0.05699999989066432,0.5059999998906644,1565.457142856304,7219.779976197622
4.130393162393162,1220.9484476841255,1220.4286486097526,1.0000000000013223,0.43700000010878176,0.05699999989121825,0.5059999998912182,1565.457142856304,7219.963935224908
4.130671340811965,1220.9655264807893,1220.4480904792545,1.0000000000013223,0.4370000001079506,0.05699999989204939,0.5059999998920494,1565.457142856304,7220.239870056783
4.130949519230769,1220.9825701373782,1220.4674446537215,1.0000000000013223,0.43700000010711915,0.056999999892880834,0.5059999998928808,1565.457142856304,7220.51580042705
4.131227697649573,1220.999579437835,1220.4867130826794,1.0000000000013223,0.4370000001062874,0.05699999989371258,0.5059999998937126,1565.457142856304,7220.791726323873
4.131505876068376,1221.0165551487125,1220.5058976724035,1.0000000000013223,0.43700000010545537,0.05699999989454463,0.5059999998945446,1565.457142856304,7221.067647735698
4.131784054487179,1221.0334980195585,1220.5250002868765,1.0000000000013223,0.43700000010462303,0.056999999895376983,0.505999999895377,1565.457142856304,7221.343564651245
4.132062232905983,1221.0504087832928,1220.5440227487277,1.0000000000013223,0.43700000010379036,0.05699999989620964,0.5059999998962096,1565.457142856304,7221.619477059497
4.132340411324787,1221.0672881565781,1220.562966840152,1.0000000000013223,0.4370000001029574,0.05699999989704259,0.5059999998970426,1565.457142856304,7221.895384949695
4.13261858974359,1221.0841368401789,1220.5818343038063,1.0000000000013223,0.43700000010212414,0.056999999897875846,0.5059999998978758,1565.457142856304,7222.171288311336
4.133731303418804,1221.1512381557206,1220.656571397551,1.0000000000013223,0.43700000009878814,0.05699999990121187,0.5059999999012119,1565.457142856304,7223.27485627086
4.134844017094017,1221.2179005974758,1220.7302121601185,1.0000000000013223,0.4370000000954473,0.05699999990455268,0.5059999999045527,1565.457142856304,7224.378350995556
4.13595673076923,1221.2841621055265,1220.8028509392116,1.0000000000013223,0.43700000009210177,0.05699999990789825,0.5059999999078982,1565.457142856304,7225.481771923608
4.137069444444444,1221.3500573641838,1220.8745739855908,1.0000000000013223,0.43700000008875145,0.05699999991124858,0.5059999999112486,1565.457142856304,7226.585118545218
4.138182158119658,1221.4156180814782,1220.9454601482544,1.0000000000013223,0.43700000008539636,0.05699999991460363,0.5059999999146036,1565.457142856304,7227.688390398121
4.139294871794871,1221.4808732446447,1221.0155815098906,1.0000000000013223,0.4370000000820366,0.056999999917963416,0.5059999999179634,1565.457142856304,7228.791587063498
4.141520299145299,1221.610570627657,1221.153787746906,1.0000000000013223,0.43700000007530293,0.05699999992469709,0.5059999999246971,1565.457142856304,7230.997753351703
4.143745726495727,1221.73933539151,1221.289654914831,1.0000000000013223,0.43700000006855044,0.05699999993144953,0.5059999999314495,1565.457142856304,7233.203614794035
4.145971153846154,1221.867322878416,1221.4235692950012,1.0000000000013223,0.4370000000617793,0.05699999993822068,0.5059999999382206,1565.457142856304,7235.409169262043
4.148196581196581,1221.9946629193676,1221.5558537286493,1.0000000000013223,0.4370000000549895,0.056999999945010496,0.5059999999450105,1565.457142856304,7237.61441503427
4.150422008547008,1222.1214640247542,1221.6867780386303,1.0000000000013223,0.43700000004818107,0.05699999995181895,0.505999999951819,1565.457142856304,7239.819350729263
4.1526474358974355,1222.2478168863931,1221.816567738493,1.0000000000013223,0.437000000041354,0.05699999995864604,0.5059999999586461,1565.457142856304,7242.023975249585
4.1548728632478635,1222.3737973041698,1221.9454113104873,1.0000000000013223,0.4370000000345083,0.056999999965491745,0.5059999999654917,1565.457142856304,7244.228287735055
4.157098290598291,1222.499468631862,1222.0734662877758,1.0000000000013223,0.43700000002764394,0.05699999997235608,0.5059999999723561,1565.457142856304,7246.432287523655
4.159323717948718,1222.6248838211693,1222.2008643373977,1.0000000000013223,0.43700000002076095,0.056999999979239054,0.5059999999792391,1565.457142856304,7248.635974118882
4.161549145299146,1222.750087129973,1222.3277155082149,1.0000000000013223,0.4370000000138593,0.056999999986140686,0.5059999999861406,1565.457142856304,7250.839347162466
4.163774572649573,1222.8751155500015,1222.454111781061,1.0000000000013223,0.437000000006939,0.05699999999306099,0.505999999993061,1565.457142856304,7253.042406411561
4.166,1223.0,1222.5801300357532,1.0000000000013223,0.437,0.056999999999999995,0.506,1565.457142856304,7255.245151719712
