z,T,t,fs,x,y,w,rhob,p
0.0,556.2445276403773,298.0,0.0,0.22647897411400006,0.26752102588599996,0.3547195771027413,2200.0,2040.0
0.0015852359208523594,571.0121680517259,332.0402828241676,2.7701037178335326e-07,0.2264790743367539,0.2675209256632461,0.3547195771027413,2199.999824225047,2043.264234927769
0.0031704718417047187,584.6223119871266,363.22353785813215,9.6825310086792e-07,0.22647932442937474,0.26752067557062525,0.3547195771027413,2199.999385601911,2046.6585002316037
0.0063409436834094375,608.7955368423186,418.18103509430506,4.760051924351482e-06,0.22648069630768256,0.2675193036923174,0.3547195771027413,2199.996979543052,2053.799339339686
0.009511415525114156,629.4948248194235,464.82460832219425,1.3846406880732266e-05,0.22648398376406995,0.2675160162359301,0.3547195771027413,2199.991213861417,2061.353095801715
0.012681887366818875,647.2955418586537,504.64225370628725,3.038360778201633e-05,0.22648996694731485,0.26751003305268517,0.3547195771027413,2199.9807202987076,2069.2594090878215
0.015852359208523594,662.6582463403778,538.7938339413128,5.5849916491769846e-05,0.22649918069470118,0.26750081930529884,0.3547195771027413,2199.964560834418,2077.4658608491236
0.01902283105022831,675.9566233696111,568.1999732245899,9.104260963839532e-05,0.2265119134620682,0.26748808653793177,0.3547195771027413,2199.9422295623585,2085.926956543129
0.022193302891933032,687.4973457407998,593.6024180344316,0.00013621714223890327,0.22652825767341117,0.2674717423265888,0.3547195771027413,2199.913564385372,2094.603219085186
0.02536377473363775,697.5345295301008,615.6063000063031,0.00019124689029257667,0.22654816751598314,0.2674518324840169,0.3547195771027413,2199.878645651814,2103.460394065351
0.028534246575342467,706.2804744109538,634.7105104711916,0.0002557582635850317,0.2265715078243033,0.2674284921756967,0.3547195771027413,2199.837710420687,2112.46875798818
0.03170471841704719,713.9137904565575,651.3300288190652,0.0003292319064444279,0.2265980906947372,0.2674019093052628,0.3547195771027413,2199.791088245422,2121.6025183865377
0.03487519025875191,720.5856479859916,665.8126624794413,0.0004110737155964859,0.22662770117985942,0.2673722988201406,0.3547195771027413,2199.739156110009,2130.839294445762
0.03804566210045662,726.4246540604076,678.4518165844017,0.0005006625411236388,0.2266601145467299,0.2673398854532701,0.3547195771027413,2199.682308160691,2140.159667548221
0.04121613394216134,731.540707016276,689.4963856825035,0.0005973810300867252,0.22669510743616084,0.26730489256383916,0.3547195771027413,2199.620936134366,2149.546792268465
0.04438660578386606,736.0280787705849,699.158521564084,0.0007006347240310366,0.22673246477222206,0.26726753522777796,0.3547195771027413,2199.5554172404,2158.9860595262817
0.04755707762557078,739.9679053962328,707.6198081729578,0.000809863164976594,0.22677198378040445,0.2672280162195956,0.3547195771027413,2199.486107113401,2168.4648047147693
0.0507275494672755,743.430218450027,715.0362242429389,0.0009245456652964707,0.22681347607517022,0.2671865239248298,0.3547195771027413,2199.413336151984,2177.972054616557
0.05389802130898022,746.4756156816635,721.5421709897462,0.001044203579892301,0.22685676848202932,0.26714323151797065,0.3547195771027413,2199.3374080769763,2187.498307792972
0.057068493150684935,749.1566455171583,727.2537699338187,0.0011684003368412086,0.22690170304862756,0.26709829695137244,0.3547195771027413,2199.2585999119738,2197.0353438837587
0.060238964992389656,751.5189621159255,732.2715845750536,0.0012967400768940638,0.2269481365525151,0.2670518634474849,0.3547195771027413,2199.177162846636,2206.5760579005205
0.06340943683409438,753.602294860042,736.6828826002261,0.0014288654728164404,0.22699593971218082,0.26700406028781914,0.3547195771027413,2199.0933236204064,2216.1143161488476
0.06657990867579909,755.4412665003205,740.5635282241175,0.0015644551085189828,0.22704499623881794,0.26695500376118203,0.3547195771027413,2199.007286185569,2225.6448308851222
0.0697503805175038,757.0660869300167,743.9795742183438,0.001703220667819842,0.22709520181921414,0.26690479818078583,0.3547195771027413,2198.9192334910967,2235.1630512161373
0.07292085235920853,758.5031440369711,746.988608167418,0.0018449040943368383,0.2271464630881965,0.2668535369118035,0.3547195771027413,2198.829329284825,2244.6650680931916
0.07609132420091325,759.7755088421706,749.6408961234022,0.0019892748241912284,0.22719869662741965,0.26680130337258035,0.3547195771027413,2198.7377198694153,2254.14753154624
0.07926179604261796,760.9033688406392,751.980358134823,0.0021361271528611034,0.22725182801268956,0.2667481719873105,0.3547195771027413,2198.644535773203,2263.6075785554176
0.08243226788432269,761.9044008832673,754.045403409809,0.002285277770468983,0.22730579092222694,0.266694209077773,0.3547195771027414,2198.5498933141616,2273.042770173261
0.08560273972602742,762.7940929032742,755.8696476394532,0.0024365634818088867,0.22736052631176987,0.26663947368823016,0.3547195771027414,2198.453896046643,2282.451036696555
0.08877321156773214,763.586022171338,757.4825308929512,0.002589839115634307,0.227415981658151,0.266584018341849,0.3547195771027414,2198.356636088025,2291.830629846489
0.09194368340943686,764.2920964643538,758.909851235052,0.0027449756201714088,0.22747211027025163,0.2665278897297484,0.3547195771027414,2198.2581953271892,2301.180081053479
0.09511415525114157,764.9227634832316,760.1742266115447,0.0029018583371420168,0.22752887066454056,0.2664711293354594,0.3547195771027414,2198.158646519726,2310.4981650618383
0.09828462709284629,765.4871930013169,761.2954954523526,0.0030603854438518998,0.22758622600141956,0.26641377399858046,0.3547195771027414,2198.0580542764997,2319.783868172181
0.101455098934551,765.9934355258252,762.2910647430524,0.0032204665514839405,0.22764414357808357,0.26635585642191645,0.3547195771027414,2197.9564759530886,2329.036360528293
0.10462557077625573,766.4485606785971,763.176212929688,0.0033820214471939453,0.2277025943734094,0.26629740562659054,0.3547195771027414,2197.8539624479795,2338.2549719321573
0.10779604261796044,766.8587780250116,763.9643538838054,0.0035449789676365653,0.2277615526403956,0.2662384473596044,0.3547195771027414,2197.7505589173643,2347.4391707375685
0.11096651445966516,767.2295426820253,764.6672672146975,0.003709275991942134,0.2278209955418201,0.26617900445817994,0.3547195771027414,2197.6463054141414,2356.588545430661
0.11413698630136987,767.5656477030245,765.2952994350594,0.0038748565427792424,0.22788090282500317,0.2661190971749968,0.35471957710274143,2197.541237458326,2365.7027885559933
0.11730745814307458,767.8713049566909,765.8575398342266,0.004041670984875376,0.22794125653183145,0.26605874346816855,0.35471957710274143,2197.4353865456255,2374.7816826905446
0.12047792998477931,768.1502159799611,766.3619743659452,0.0042096753111629725,0.22800204074048408,0.2659979592595159,0.35471957710274143,2197.328780600411,2383.8250882060033
0.12364840182648404,768.4056340838853,766.8156203962513,0.004378830507526946,0.22806324133559772,0.2659367586644023,0.35471957710274143,2197.22144437881,2392.8329325928407
0.12681887366818875,768.6404188196933,767.2246447663609,0.004549101987923503,0.22812484580389158,0.2658751541961084,0.35471957710274143,2197.1133998271484,2401.8052011484765
0.12998934550989347,768.857083765748,767.5944672933615,0.004720459092400768,0.2281868430525507,0.26581315694744934,0.35471957710274143,2197.004666400482,2410.7419288569517
0.13315981735159818,769.0578384703034,767.9298515481386,0.00489287464126871,0.2282492232479238,0.2657507767520762,0.35471957710274143,2196.8952613454876,2419.6431933094364
0.1363302891933029,769.2446252768069,768.234984507401,0.005066324539333427,0.22831197767233483,0.26568802232766514,0.35471957710274143,2196.7851999515983,2428.5091085339495
0.1395007610350076,769.4191516651936,768.5135464683975,0.005240787424726617,0.22837509859702892,0.26562490140297107,0.35471957710274143,2196.6744957738356,2437.3398196193734
0.14267123287671235,769.5829186619759,768.7687724355767,0.005416244357425123,0.2284385791694782,0.26556142083052175,0.3547195771027415,2196.5631608304557,2446.135498033311
0.14584170471841706,769.7372458020754,769.0035060336586,0.0055926785430692304,0.22850241331345908,0.26549758668654094,0.3547195771027415,2196.4512057781994,2454.8963375460744
0.14901217656012178,769.8832930647071,769.2202468676719,0.0057700750881543176,0.22856659564047993,0.26543340435952006,0.3547195771027415,2196.3386400676336,2463.622550684128
0.1521826484018265,770.0220801529248,769.4211921344233,0.005948420783091415,0.22863112137129232,0.26536887862870767,0.3547195771027415,2196.225472080809,2472.3143656459924
0.1553531202435312,770.1545034405307,769.6082731890624,0.006127703910011558,0.22869598626635435,0.26530401373364565,0.3547195771027415,2196.111709253216,2480.972023622063
0.15852359208523592,770.28135087005,769.7831876827075,0.006307914072529625,0.22876118656423877,0.2652388134357612,0.3547195771027415,2195.9973581818053,2489.5957764671643
0.16169406392694063,770.4033150505335,769.9474278107177,0.0064890420449891005,0.22882671892708972,0.26517328107291027,0.3547195771027415,2195.8824247206526,2498.1858846811247
0.16486453576864538,770.5210047734322,770.1023051445652,0.00667107963898291,0.2288925803923296,0.2651074196076704,0.35471957710274155,2195.7669140656526,2506.7426156582633
0.1680350076103501,770.6349551380991,770.2489724620855,0.006854019585190193,0.22895876832990766,0.26504123167009236,0.35471957710274155,2195.6508308295,2515.266242171633
0.1712054794520548,770.745636455093,770.3884429400276,0.007037855428787423,0.22902528040445935,0.2649747195955407,0.35471957710274155,2195.534179108059,2523.7570410621474
0.17437595129375952,770.8534620749999,770.5216070283383,0.0072225814368871615,0.2290921145418177,0.26490788545818234,0.35471957710274155,2195.416962539091,2532.2152921064794
0.17754642313546423,770.9587952725374,770.6492472866526,0.007408192516631465,0.22915926889937932,0.2648407311006207,0.35471957710274155,2195.2991843542322,2540.641277040925
0.18071689497716897,771.061955299972,770.7720514293444,0.0075946841427216305,0.2292267418398846,0.26477325816011543,0.35471957710274155,2195.18084742498,2549.035278721282
0.18388736681887372,771.1632227100727,770.8906237955568,0.007782052293303583,0.2292945319082209,0.2647054680917791,0.3547195771027416,2195.061954303372,2557.3975804013076
0.18705783866057843,771.262844036697,771.0054954343968,0.007970293393250597,0.22936263781090221,0.26463736218909784,0.3547195771027416,2194.9425072579797,2565.728465114537
0.19022831050228314,771.3610359104678,771.1171329724397,0.008159404263993836,0.22943105839791766,0.26456894160208233,0.3547195771027416,2194.822508305742,2574.028215146139
0.19339878234398786,771.4579886776429,771.2259464104749,0.008349382079147788,0.22949979264667697,0.264500207353323,0.3547195771027416,2194.7019592401202,2582.297111583177
0.19656925418569257,771.5538695820655,771.3322959786635,0.008540224325263475,0.22956883964781058,0.26443116035218944,0.3547195771027416,2194.580861656006,2590.535433933118
0.19973972602739729,771.6488255628636,771.4364981636835,0.00873192876711854,0.22963819859261186,0.26436180140738813,0.3547195771027416,2194.459216971745,2598.743459801706
0.202910197869102,771.7429857142178,771.5388310077288,0.008924493417020753,0.22970786876193083,0.26429213123806916,0.3547195771027416,2194.337026448611,2606.9214646224486
0.2060806697108067,771.8364634479356,771.6395387671853,0.009117916507661562,0.2297778495163527,0.26422215048364733,0.35471957710274166,2194.2142912080385,2615.0697214309325
0.20925114155251143,771.9293583946661,771.7388360082176,0.009312196468109315,0.2298481402875122,0.26415185971248784,0.35471957710274166,2194.0910122468504,2623.188500678066
0.21242161339421614,772.0217580752714,771.8369112071896,0.009507331902579026,0.22991874057041217,0.2640812594295878,0.35471957710274166,2193.967190450732,2631.278070077069
0.21559208523592086,772.1137393700742,771.9339299156576,0.009703321571657193,0.22998964991663112,0.26401035008336887,0.35471957710274166,2193.8428266061446,2639.3386944797185
0.2187625570776256,772.2053698103703,772.0300375424782,0.009900164375697275,0.2300608679283153,0.26393913207168473,0.35471957710274166,2193.7179214108614,2647.3706357778956
0.2219330289193303,772.2967087136457,772.1253617992384,0.010097859340134125,0.2301323942528656,0.2638676057471344,0.35471957710274166,2193.5924754832845,2655.374152827013
0.22510350076103502,772.3878081813702,772.220014849653,0.010296405602494778,0.23020422857823808,0.2637957714217619,0.3547195771027417,2193.4664893706913,2663.3495013883285
0.22827397260273974,772.4787139759549,772.3140951986726,0.01049580240090864,0.2302763706287869,0.26372362937121313,0.3547195771027417,2193.339963556521,2671.296934087521
0.23144444444444445,772.569466291468,772.4076893527424,0.01069604906394293,0.2303488201615866,0.26365117983841335,0.3547195771027417,2193.212898466825,2679.216700387268
0.23461491628614917,772.6601004309446,772.5008732788581,0.010897145001609333,0.23042157696317866,0.2635784230368214,0.3547195771027417,2193.0852944759786,2687.109046571825
0.23778538812785388,772.7506474015801,772.5937136867376,0.011099089697405695,0.23049464084669177,0.26350535915330825,0.3547195771027417,2192.9571519117235,2694.9742157418937
0.24095585996955862,772.8411344377304,772.6862691554916,0.011301882701272355,0.23056801164929375,0.26343198835070625,0.35471957710274177,2192.8284710596413,2702.812447818258
0.24412633181126334,772.931585460455,772.7785911235994,0.01150552362335664,0.2306416892299353,0.2633583107700647,0.35471957710274177,2192.699252167111,2710.6239795528913
0.24729680365296805,773.0220214812757,772.8707247587265,0.011710012128491496,0.23071567346735253,0.2632843265326475,0.35471957710274177,2192.5694954468095,2718.409044546391
0.2504672754946728,773.1124609569054,772.962709721926,0.011915347931305036,0.23078996425829745,0.26321003574170254,0.35471957710274177,2192.4392010798183,2726.1678732707505
0.2536377473363775,773.2029201008811,773.0545808390104,0.012121530791887537,0.23086456151597037,0.26313543848402965,0.35471957710274177,2192.308369218371,2733.900693096606
0.2568082191780822,773.2934131573226,773.146368690338,0.01232856051195096,0.2309394651686304,0.2630605348313696,0.35471957710274177,2192.176999988288,2741.607728324221
0.25997869101978693,773.3839526414048,773.2381001288966,0.012536436931423579,0.2310146751583634,0.2629853248416366,0.3547195771027418,2192.0450934911432,2749.289200217549
0.26314916286149165,773.4745495505792,773.3297987353761,0.012745159925429038,0.23109019143998882,0.26290980856001117,0.3547195771027418,2191.9126498061755,2756.9453270408226
0.26631963470319636,773.5652135500918,773.4214852178724,0.01295472940160503,0.23116601398008998,0.26283398601991004,0.3547195771027418,2191.779668991993,2764.5763240971846
0.2694901065449011,773.655953135915,773.513177762936,0.013165145297722055,0.23124214275615204,0.262757857243848,0.3547195771027418,2191.6461510880827,2772.182403768933
0.2726605783866058,773.7467757778347,773.604892343873,0.013376407579567269,0.23131857775579678,0.2626814222442032,0.3547195771027418,2191.5120961161538,2779.7637755590295
0.27583105022831056,773.8376880451044,773.6966429914837,0.013588516239062607,0.23139531897610158,0.26260468102389845,0.3547195771027419,2191.377504081333,2787.32064613355
0.2790015220700153,773.9286957167793,773.7884420318074,0.013801471292589839,0.23147236642299335,0.26252763357700665,0.3547195771027419,2191.242374973225,2794.853219364818
0.28217199391172,774.0198038785967,773.880300294876,0.014015272779498591,0.23154972011070885,0.26245027988929115,0.3547195771027419,2191.1067087668603,2802.3616963749837
0.2853424657534247,774.1110170080353,773.9722272980027,0.014229920760775953,0.2316273800613133,0.2623726199386867,0.3547195771027419,2190.970505423541,2809.8462755798546
0.2885129375951294,774.2023390489927,774.064231406706,0.01444541531785897,0.23170534630427073,0.26229465369572924,0.3547195771027419,2190.8337648915904,2817.30715273281
0.29168340943683413,774.2937734773428,774.1563199759823,0.014661756551573429,0.2317836188760601,0.2622163811239399,0.35471957710274193,2190.6964871070318,2824.744520968659
0.29485388127853884,774.3853233584849,774.2484994743271,0.01487894458118429,0.23186219781983158,0.2621378021801684,0.35471957710274193,2190.5586719941853,2832.1585708473112
0.29802435312024356,774.4769913978581,774.3407755925982,0.01509697954354484,0.23194108318509893,0.26205891681490107,0.35471957710274193,2190.420319466212,2839.5494903971708
0.30119482496194827,774.5687799852805,774.433153339573,0.015315861592333174,0.23202027502746309,0.2619797249725369,0.35471957710274193,2190.2814294255963,2846.9174651581575
0.304365296803653,774.6606912338618,774.5256371258173,0.015535590897365928,0.232099773408364,0.26190022659163603,0.354719577102742,2190.142001764583,2854.2626782242883
0.3075357686453577,774.7527270141558,774.618230837294,0.015756167643980343,0.23217957839485687,0.2618204216051431,0.354719577102742,2190.0020363655667,2861.5853102857586
0.3107062404870624,774.844888984129,774.7109378999592,0.015977592032476864,0.23225969005941074,0.2617403099405892,0.354719577102742,2189.8615331014494,2868.885539670475
0.3138767123287671,774.9371786154602,774.8037613364493,0.0161998642776153,0.23234010847972603,0.2616598915202739,0.354719577102742,2189.7204918359553,2876.1635423849975
0.3170471841704719,775.0295972166145,774.8967038158225,0.016422984608158435,0.23242083373856945,0.2615791662614306,0.354719577102742,2189.578912423926,2883.4194921548674
0.3202176560121766,775.1221459530904,774.9897676972041,0.016646953266457713,0.23250186592362407,0.26149813407637595,0.35471957710274205,2189.436794711578,2890.6535604642813
0.3233881278538813,775.2148258651807,775.0829550680776,0.016871770508076207,0.232583205127353,0.261416794872647,0.35471957710274205,2189.2941385367467,2897.865916595114
0.32655859969558604,775.3076378835565,775.1762677778804,0.01709743660144467,0.23266485144687482,0.2613351485531252,0.35471957710274205,2189.1509437291006,2905.0567276652546
0.32972907153729075,775.4005828429345,775.2697074674753,0.017323951827546945,0.23274680498385,0.26125319501615,0.35471957710274205,2189.0072101103433,2912.2261586662607
0.33289954337899547,775.4936614940675,775.3632755950031,0.017551316479631474,0.23282906584437618,0.2611709341556238,0.3547195771027421,2188.862937494396,2919.3743725003233
0.3360700152207002,775.5868745142607,775.456973458559,0.017779530862946,0.23291163413889243,0.26108836586110756,0.3547195771027421,2188.7181256875665,2926.5015300165314
0.3392404870624049,775.6802225165936,775.5508022160824,0.018008595294492856,0.2329945099820907,0.2610054900179093,0.3547195771027421,2188.572774488703,2933.6077900464506
0.3424109589041096,775.7737060580092,775.644762902801,0.018238510102802696,0.23307769349283383,0.2609223065071662,0.3547195771027421,2188.426883689339,2940.6933094390065
0.3455814307458143,775.8673256464059,775.7388564465284,0.018469275627724536,0.23316118479407968,0.26083881520592034,0.35471957710274216,2188.280453073825,2947.7582430946804
0.34875190258751904,775.961081746856,775.8330836810806,0.018700892220230456,0.23324498401281044,0.26075501598718953,0.35471957710274216,2188.1334824194546,2954.80274399903
0.35192237442922375,776.0549747870598,775.9274453580374,0.01893336024223332,0.23332909127996676,0.2606709087200333,0.35471957710274216,2187.9859714965783,2961.8269632555307
0.35509284627092846,776.1490051621244,776.0219421570584,0.01916668006641621,0.23341350673038586,0.26058649326961414,0.35471957710274216,2187.837920068713,2968.8310501177593
0.3582633181126332,776.2431732387547,776.1165746949256,0.01940085207607229,0.23349823050274382,0.2605017694972562,0.3547195771027422,2187.689327892643,2975.815152020918
0.3614337899543379,776.3374793589277,776.2113435334707,0.019635876664954092,0.2335832627395008,0.2604167372604992,0.3547195771027422,2187.5401947185155,2982.779414612717
0.3646042617960426,776.4319238431104,776.3062491865255,0.01987175423713119,0.23366860358684988,0.2603313964131501,0.3547195771027422,2187.39052028993,2989.723981783623
0.3677747336377473,776.5265069930836,776.4012921260141,0.020108485206855535,0.2337542531946679,0.26024574680533213,0.3547195771027422,2187.240304344027,2996.648995696483
0.37094520547945203,776.6212290944127,776.4964727872922,0.02034606999843357,0.23384021171646957,0.2601597882835304,0.35471957710274227,2187.0895466115653,3003.55459681554
0.37411567732115675,776.7160904186156,776.591791573827,0.02058450904610458,0.23392647930936333,0.26007352069063666,0.35471957710274227,2186.9382468170015,3010.4409239348506
0.37728614916286146,776.8110912250614,776.6872488612989,0.020823802793924633,0.23401305613400927,0.25998694386599075,0.35471957710274227,2186.786404678564,3017.3081142061124
0.3804566210045662,776.906231762633,776.7828450011957,0.021063951695655603,0.23409994235457915,0.25990005764542085,0.35471957710274227,2186.6340199083193,3024.156303165917
0.3836270928462709,777.0015122711841,776.8785803239613,0.021304956214658843,0.23418713813871772,0.2598128618612823,0.3547195771027423,2186.481092212247,3030.9856247624466
0.3867975646879756,777.0969329828163,776.9744551417557,0.021546816823793048,0.23427464365750594,0.25972535634249405,0.3547195771027423,2186.3276212902965,3037.7962113816075
0.3899680365296803,777.1924941229954,777.0704697508722,0.021789534005315997,0.23436245908542544,0.2596375409145746,0.3547195771027423,2186.1736068364553,3044.588193872639
0.39313850837138503,777.2881959115315,777.1666244338554,0.022033108250789853,0.23445058460032406,0.25954941539967596,0.3547195771027423,2186.019048538806,3051.361701573186
0.3963089802130898,777.3840385634348,777.2629194613563,0.02227754006098966,0.23453902038338292,0.25946097961661707,0.3547195771027424,2185.8639460795853,3058.1168623338613
0.3994794520547945,777.480022289667,777.3593550937568,0.022522829945814886,0.23462776661908447,0.25937223338091553,0.3547195771027424,2185.70829913524,3064.8538025423018
0.40264992389649923,777.5761472977969,777.4559315825933,0.02276897842420372,0.2347168234951812,0.25928317650481875,0.3547195771027424,2185.5521073764817,3071.572647146737
0.405820395738204,777.6724137925759,777.5526491718023,0.02301598602404994,0.23480619120266596,0.25919380879733406,0.35471957710274243,2185.3953704683395,3078.2735196790727
0.4089908675799087,777.7688219764408,777.6495080988124,0.02326385328212216,0.2348958699357423,0.2591041300642577,0.35471957710274243,2185.23808807021,3084.956542277511
0.4121613394216134,777.8653720499535,777.7465085954993,0.023512580743985313,0.23498585989179643,0.25901414010820356,0.35471957710274243,2185.0802598359096,3091.621835708705
0.41533181126331814,777.9620642121868,777.8436508890223,0.0237621689639242,0.23507616127136943,0.25892383872863056,0.35471957710274243,2184.9218854137202,3098.269519389473
0.41850228310502285,778.0588986610597,777.9409352025564,0.024012618504869028,0.23516677427813026,0.25883322572186973,0.3547195771027425,2184.762964446439,3104.899711408071
0.42167275494672757,778.1558755936333,778.0383617559329,0.024263929938322715,0.2352576991188495,0.2587423008811505,0.3547195771027425,2184.6034965714225,3111.512528545041
0.4248432267884323,778.2529952063664,778.1359307662011,0.024516103844289983,0.23534893600337364,0.2586510639966263,0.3547195771027425,2184.4434814206334,3118.1080862936387
0.428013698630137,778.3502576953421,778.2336424481181,0.024769140811208082,0.23544048514460023,0.25855951485539974,0.35471957710274254,2184.2829186206823,3124.6864988798616
0.4311841704718417,778.4476632564629,778.331497014579,0.025023041435879002,0.23553234675845303,0.25846765324154697,0.35471957710274254,2184.121807792873,3131.2478792820702
0.4343546423135464,778.5452120856231,778.4294946769917,0.025277806323403238,0.23562452106385826,0.2583754789361417,0.35471957710274254,2183.960148553244,3137.792339250228
0.43752511415525114,778.6429043788585,778.5276356456058,0.025533436087114895,0.23571700828272116,0.25828299171727886,0.35471957710274254,2183.7979405126075,3144.3199893247606
0.44069558599695585,778.7407403324767,778.6259201298003,0.025789931348518154,0.23580980863990275,0.25819019136009724,0.3547195771027426,2183.6351832765936,3150.830938855044
0.44386605783866057,778.8387201431718,778.7243483383344,0.026047292737225006,0.23590292236319763,0.25809707763680234,0.3547195771027426,2183.4718764456848,3157.325296017532
0.44703652968036534,778.9368440081238,778.8229204795666,0.02630552089089424,0.23599634968331168,0.2580036503166883,0.3547195771027426,2183.308019615261,3163.8031678335296
0.45020700152207005,779.0351121250848,778.9216367616481,0.026564616455171525,0.2360900908338404,0.25790990916615963,0.35471957710274266,2183.143612375631,3170.2646601866254
0.45337747336377476,779.1335246924551,779.0204973926889,0.026824580083630742,0.23618414605124777,0.2578158539487522,0.35471957710274266,2182.9786543120754,3176.7098778397794
0.4565479452054795,779.2320819093492,779.1195025809053,0.027085412437716307,0.23627851557484533,0.25772148442515463,0.35471957710274266,2182.8131450048786,3183.138924452093
0.4597184170471842,779.3307839756523,779.2186525347475,0.027347114186686578,0.23637319964677178,0.2576268003532282,0.3547195771027427,2182.6470840293678,3189.5519025952485
0.4628888888888889,779.4296310920704,779.3179474630118,0.027609686007558285,0.23646819851197268,0.2575318014880273,0.3547195771027427,2182.4804709559467,3195.948913769637
0.4660593607305936,779.5286234601739,779.4173875749376,0.02787312858505192,0.23656351241818097,0.2574364875818191,0.3547195771027427,2182.313305350131,3202.3300584201825
0.4692298325722984,779.6277612824347,779.5169730802925,0.028137442611538117,0.23665914161589727,0.2573408583841027,0.35471957710274277,2182.1455867725813,3208.695435951864
0.4724003044140031,779.7270447622587,779.6167041894474,0.02840262878698489,0.2367550863583711,0.25724491364162894,0.35471957710274277,2181.977314779139,3215.045144744946
0.4755707762557078,779.8264741040144,779.7165811134404,0.02866868781890582,0.2368513469015818,0.2571486530984182,0.35471957710274277,2181.8084889208544,3221.379282169922
0.47874124809741253,779.926049513057,779.8166040640332,0.028935620422309127,0.2369479235042205,0.25705207649577955,0.3547195771027428,2181.639108744027,3227.697944602177
0.48191171993911724,780.0257711957496,779.916773253761,0.0292034273196475,0.2370448164276715,0.25695518357232844,0.3547195771027428,2181.469173790227,3234.001227436382
0.48508219178082196,780.125639359481,780.0170888959747,0.029472109240768832,0.23714202593599495,0.256857974064005,0.3547195771027428,2181.298683596336,3240.289225100617
0.4882526636225267,780.2256542126821,780.1175512048784,0.029741666922867734,0.23723955229590887,0.2567604477040912,0.3547195771027429,2181.127637694572,3246.562031070232
0.4914231354642314,780.3258159648384,780.218160395562,0.03001210111043782,0.2373373957767721,0.25666260422322784,0.3547195771027429,2180.9560356125226,3252.8197378814584
0.4945936073059361,780.4261248265022,780.318916684029,0.03028341255522477,0.2374355566505674,0.2565644433494326,0.3547195771027429,2180.7838768731717,3259.062437144765
0.49776407914764087,780.5265810093025,780.4198202872212,0.030555602016180107,0.23753403519188443,0.2564659648081156,0.35471957710274293,2180.611160994933,3265.2902195579745
0.5009345509893456,780.6271847259528,780.5208714230404,0.03082867025941573,0.23763283167790364,0.25636716832209633,0.35471957710274293,2180.437887491675,3271.5031749191376
0.5041050228310503,780.727936190259,780.6220703103658,0.031102618058159157,0.23773194638837986,0.25626805361162014,0.35471957710274293,2180.2640558727526,3277.701392139178
0.507275494672755,780.8288356171247,780.7234171690707,0.031377446192709435,0.23783137960562645,0.2561686203943736,0.354719577102743,2180.089665643032,3283.8849592543083
0.5104459665144597,780.9298832225569,780.8249122200365,0.03165315545039375,0.2379311316144994,0.2560688683855006,0.354719577102743,2179.91471630292,3290.0539634382167
0.5136164383561644,781.0310792236701,780.9265556851643,0.03192974662552469,0.23803120270238234,0.2559687972976177,0.354719577102743,2179.739207348392,3296.208491014048
0.5167869101978692,781.1324238386894,781.0283477873852,0.03220722051935816,0.23813159315917068,0.25586840684082934,0.35471957710274304,2179.5631382710167,3302.3486274661577
0.5199573820395739,781.2339172869545,781.1302887506696,0.03248557794005193,0.23823230327725714,0.25576769672274285,0.35471957710274304,2179.3865085579823,3308.4744574516676
0.5231278538812786,781.3355597889207,781.2323788000343,0.032764819702624785,0.23833333335151663,0.25566666664848336,0.3547195771027431,2179.2093176921258,3314.58606481181
0.5262983257229833,781.4373515661623,781.3346181615498,0.03304494662891634,0.238434683679292,0.255565316320708,0.3547195771027431,2179.031565151954,3320.6835325830784
0.529468797564688,781.539292841373,781.4370070623455,0.03332595954754738,0.23853635456037936,0.25546364543962063,0.3547195771027431,2178.853250411672,3326.7669430081764
0.5326392694063927,781.641383838368,781.5395457306149,0.033607859293880785,0.2386383462970143,0.25536165370298575,0.35471957710274316,2178.6743729412055,3332.836377546779
0.5358097412480974,781.7436247820841,781.6422343956194,0.033890646709983145,0.23874065919385767,0.2552593408061423,0.35471957710274316,2178.4949322062284,3338.891916886107
0.5389802130898022,781.8460158985813,781.745073287692,0.034174322644586745,0.23884329355798206,0.255156706442018,0.3547195771027432,2178.314927668182,3344.933640951314
0.542150684931507,781.9485574150427,781.8480626382408,0.03445888795305227,0.2389462496988582,0.2550537503011418,0.3547195771027432,2178.134358784305,3350.9616289157
0.5453211567732117,782.0512495597751,781.9512026797507,0.03474434349733192,0.23904952792834164,0.2549504720716584,0.3547195771027432,2177.95322500765,3356.975959210742
0.5484916286149164,782.1540925622089,782.0544936457868,0.03503069014593314,0.23915312856065962,0.25484687143934037,0.35471957710274327,2177.7715257871137,3362.976709535961
0.5516621004566211,782.2570866528986,782.1579357709948,0.0353179287738828,0.2392570519123982,0.2547429480876018,0.35471957710274327,2177.5892605674526,3368.963956868612
0.5548325722983258,782.3602320635223,782.2615292911038,0.035606060262691974,0.2393612983024893,0.2546387016975107,0.3547195771027433,2177.4064287893107,3374.9377774732166
0.5580030441400305,782.4635290268822,782.3652744429272,0.03589508550032108,0.2394658680521983,0.25453413194780167,0.3547195771027433,2177.223029889239,3380.8982469109283
0.5611735159817353,782.5669777769036,782.4691714643637,0.036185005381145635,0.23957076148511156,0.2544292385148884,0.3547195771027433,2177.0390632997182,3386.845440048743
0.56434398782344,782.670578548636,782.5732205943984,0.036475820805922377,0.23967597892712414,0.2543240210728759,0.3547195771027434,2176.8545284491793,3392.7794310685545
0.5675144596651447,782.7743315782511,782.6774220731035,0.03676753268175598,0.2397815207064279,0.2542184792935721,0.3547195771027434,2176.6694247620253,3398.700293476056
0.5706849315068494,782.8782371030444,782.781776141639,0.0370601419220661,0.2398873871534993,0.2541126128465007,0.35471957710274343,2176.483751658652,3404.6081001094954
0.5738554033485541,782.9822953614337,782.8862830422536,0.03735364944655497,0.23999357860108803,0.25400642139891194,0.35471957710274343,2176.2975085554704,3410.5029231482845
0.5770258751902588,783.0865065929593,782.9909430182844,0.03764805618117536,0.24010009538420507,0.2538999046157949,0.35471957710274343,2176.110694864922,3416.384834121464
0.5801963470319635,783.1908710382838,783.0957563141583,0.037943363058099026,0.24020693784011157,0.2537930621598884,0.3547195771027435,2175.923309995505,3422.25390391603
0.5833668188736683,783.2953889391918,783.2007231753917,0.038239571015685564,0.24031410630830738,0.25368589369169264,0.3547195771027435,2175.73535335179,3428.1102027851266
0.586537290715373,783.4000605385895,783.3058438485907,0.038536680998451686,0.24042160113051997,0.25357839886948,0.35471957710274354,2175.5468243344394,3433.9538003560956
0.5897077625570777,783.5048860805051,783.4111185814522,0.03883469395704086,0.24052942265069358,0.25347057734930645,0.35471957710274354,2175.357722340231,3439.7847656384056
0.5928782343987824,783.609865810088,783.5165476227635,0.03913361084819346,0.24063757121497822,0.25336242878502174,0.3547195771027436,2175.1680467620704,3445.603167031443
0.5960487062404871,783.7149999736092,783.6221312224026,0.03943343263471717,0.24074604717171916,0.2532539528282809,0.3547195771027436,2174.9777969890165,3451.409072332184
0.5992191780821918,783.820288818461,783.7278696313388,0.039734160285457884,0.24085485087144617,0.25314514912855385,0.35471957710274366,2174.7869724062934,3457.2025487427377
0.6023896499238965,783.9257325931569,783.8337631016325,0.04003579477527094,0.24096398266686336,0.2530360173331366,0.35471957710274366,2174.595572395315,3462.983662877768
0.6055601217656013,784.0313315473323,783.9398118864362,0.04033833708499272,0.2410734429128388,0.2529265570871612,0.35471957710274366,2174.403596333697,3468.7524807718014
0.608730593607306,784.1370859317436,784.0460162399937,0.04064178820141262,0.2411832319663943,0.2528167680336057,0.3547195771027437,2174.2110435952804,3474.5090678864117
0.6119010654490107,784.2429959982693,784.1523764176417,0.040946149117245395,0.24129335018669543,0.2527066498133046,0.3547195771027437,2174.0179135501457,3480.2534891172954
0.6150715372907154,784.3490619999095,784.258892675809,0.04125142083110386,0.2414037979350418,0.2525962020649582,0.35471957710274377,2173.8242055646288,3485.985808801232
0.6182420091324201,784.4552841907868,784.3655652720173,0.04155760434747187,0.24151457557485714,0.2524854244251428,0.35471957710274377,2173.629919001343,3491.7060907229356
0.6214124809741248,784.5616628261462,784.4723944648817,0.04186470067667773,0.2416256834716797,0.2523743165283203,0.3547195771027438,2173.43505321919,3497.414398121797
0.6245829528158295,784.668198162356,784.5793805141113,0.042172710834867864,0.2417371219931527,0.25226287800684727,0.3547195771027438,2173.2396075733836,3503.1107936985236
0.6277534246575343,784.7748904569078,784.6865236805088,0.04248163584398086,0.241848891509015,0.252151108490985,0.3547195771027439,2173.043581415458,3508.79533962167
0.630923896499239,784.8817399684175,784.7938242259719,0.04279147673172178,0.2419609923910918,0.25203900760890824,0.3547195771027439,2172.846974093291,3514.468097534072
0.6340943683409437,784.988746956626,784.9012824134935,0.043102234531536866,0.24207342501328544,0.25192657498671456,0.35471957710274393,2172.649784951117,3520.1291285591806
0.6372648401826484,785.0959116823998,785.008898507162,0.04341391028258846,0.24218618975156636,0.25181381024843363,0.35471957710274393,2172.4520133295423,3525.7784933072903
0.6404353120243531,785.203234407732,785.1166727721626,0.04372650502973026,0.24229928698396416,0.25170071301603586,0.354719577102744,2172.2536585655635,3531.416251881683
0.6436057838660578,785.310715395743,785.224605474777,0.04404001982348292,0.2424127170905587,0.2515872829094413,0.354719577102744,2172.054719992579,3537.042463884669
0.6467762557077625,785.4183549106824,785.3326968823854,0.04435445572000987,0.24252648045347144,0.2514735195465285,0.35471957710274404,2171.855196940409,3542.6571884235377
0.6499467275494673,785.5261532179293,785.4409472634659,0.04466981378109347,0.24264057745685683,0.2513594225431432,0.35471957710274404,2171.6550887353055,3548.26048411642
0.653117199391172,785.634110583994,785.5493568875966,0.044986095074111394,0.24275500848689358,0.2512449915131064,0.3547195771027441,2171.454394699973,3553.8524090980573
0.6562876712328767,785.7422272765198,785.6579260254554,0.04530330067201336,0.24286977393177653,0.2511302260682235,0.3547195771027441,2171.2531141535787,3559.4330210254866
0.6594581430745815,785.8505035642839,785.766654948822,0.04562143165329804,0.242984874181708,0.251015125818292,0.35471957710274415,2171.0512464117683,3565.0023770836406
0.6626286149162862,785.9589397171999,785.8755439305779,0.045940489101990285,0.2431003096288898,0.25089969037111026,0.35471957710274415,2170.848790786683,3570.5605339908548
0.6657990867579909,786.0675360063192,785.9845932447088,0.04626047410761866,0.24321608066751488,0.2507839193324851,0.3547195771027442,2170.6457465869685,3576.1075480043073
0.6689695585996956,786.1762927038332,786.0938031663044,0.04658138776519312,0.2433321876937595,0.25066781230624047,0.3547195771027442,2170.442113117795,3581.6434749253617
0.6721400304414004,786.2852100830755,786.2031739715604,0.04690323117518301,0.243448631105775,0.25055136889422497,0.35471957710274427,2170.2378896808677,3587.1683701048405
0.6753105022831051,786.3942884185248,786.31270593778,0.04722600544349528,0.2435654113036802,0.25043458869631985,0.35471957710274427,2170.0330755744403,3592.682288448217
0.6784809741248098,786.5035279858064,786.422399343375,0.04754971168145297,0.24368252868955328,0.25031747131044674,0.3547195771027443,2169.827670093332,3598.1852844207297
0.6816514459665145,786.6129290616963,786.5322544678672,0.047874351005773884,0.24379998366742445,0.25020001633257555,0.3547195771027443,2169.6216725289364,3603.6774120524206
0.6848219178082192,786.7224919241237,786.6422715918906,0.048199924538549564,0.243917776643268,0.25008222335673197,0.3547195771027444,2169.4150821692388,3609.1587249431054
0.6879923896499239,786.8322168521742,786.7524509971922,0.04852643340722439,0.24403590802499497,0.24996409197500502,0.35471957710274443,2169.2078982988273,3614.6292762672606
0.6911628614916286,786.9421041260932,786.862792966635,0.048853878744574995,0.2441543782224456,0.2498456217775544,0.35471957710274443,2169.0001201989066,3620.0891187788484
0.6943333333333334,787.0521540272907,786.9732977841991,0.04918226168868986,0.24427318764738187,0.24972681235261812,0.3547195771027445,2168.791747147311,3625.5383048160684
0.6975038051750381,787.1623668383444,787.083965734984,0.04951158338294911,0.24439233671348046,0.24960766328651954,0.3547195771027445,2168.5827784185167,3630.976886306037
0.7006742770167428,787.2727428430045,787.1947971052107,0.04984184497600453,0.24451182583632522,0.24948817416367478,0.35471957710274454,2168.373213283655,3636.4049147694054
0.7038447488584475,787.3832823261987,787.3057921822244,0.05017304762175982,0.24463165543340015,0.24936834456659984,0.35471957710274454,2168.1630510105238,3641.8224413249063
0.7070152207001522,787.4939855740374,787.4169512544969,0.050505192479351,0.2447518259240824,0.2492481740759176,0.3547195771027446,2167.9522908636027,3647.2295166938356
0.7101856925418569,787.6048528738188,787.5282746116287,0.050838280713126995,0.24487233772963504,0.24912766227036495,0.3547195771027446,2167.740932104062,3652.6261912044743
0.7133561643835616,787.7158845140358,787.6397625443526,0.05117231349263052,0.24499319127320035,0.24900680872679964,0.35471957710274465,2167.528973989776,3658.012514796441
0.7165266362252664,787.8270807843813,787.7514153445362,0.051507291992579037,0.24511438697979276,0.24888561302020723,0.3547195771027447,2167.316415775337,3663.388537024988
0.7196971080669711,787.9384419757566,787.8632333051851,0.051843217392845996,0.2452359252762923,0.2487640747237077,0.3547195771027447,2167.1032567120656,3668.754307065233
0.7228675799086758,788.0499683802778,787.9752167204468,0.05218009087844215,0.24535780659143747,0.24864219340856253,0.35471957710274477,2166.8894960480193,3674.109873716333
0.7260380517503805,788.1616602912843,788.0873658856138,0.052517913639497156,0.24548003135581897,0.24851996864418102,0.35471957710274477,2166.6751330280117,3679.455285405598
0.7292085235920852,788.2735180033477,788.1996810971276,0.05285668687124129,0.2456026000018728,0.24839739999812718,0.3547195771027448,2166.4601668936175,3684.7905901925487
0.7323789954337899,788.3855418122811,788.3121626525827,0.05319641177398736,0.2457255129638739,0.2482744870361261,0.3547195771027449,2166.244596883186,3690.115835772916
0.7355494672754946,788.4977320151494,788.4248108507315,0.05353708955311277,0.24584877067792957,0.24815122932207045,0.3547195771027449,2166.028422231855,3695.4310694825854
0.7387199391171995,788.6100889102801,788.5376259914883,0.05387872141904178,0.24597237358197302,0.24802762641802698,0.35471957710274493,2165.811642171557,3700.736338301486
0.7418904109589042,788.7226127972752,788.6506083759347,0.05422130858722787,0.24609632211575716,0.24790367788424286,0.354719577102745,2165.5942559310356,3706.0316888574266
0.7450608828006089,788.8353039770244,788.7637583063249,0.05456485227813637,0.24622061672084802,0.247779383279152,0.354719577102745,2165.3762627358533,3711.3171674298774
0.7482313546423137,788.9481627517183,788.8770760860913,0.05490935371722715,0.2463452578406188,0.2476547421593812,0.35471957710274504,2165.1576618084027,3716.5928199537047
0.7514018264840184,789.0611894248636,788.9905620198507,0.055254814134937436,0.24647024592024347,0.24752975407975653,0.35471957710274504,2164.938452367919,3721.858692022844
0.7545722983257231,789.1743843012995,789.1042164134107,0.05560123476666496,0.24659558140669072,0.24740441859330928,0.3547195771027451,2164.71863363049,3727.1148288939344
0.7577427701674279,789.2877476872146,789.2180395737769,0.05594861685275108,0.24672126474871786,0.24727873525128213,0.35471957710274515,2164.498204809064,3732.3612754898954
0.7609132420091326,789.4012798901664,789.3320318091602,0.05629696163846408,0.24684729639686473,0.24715270360313527,0.35471957710274515,2164.2771651134676,3737.5980764034616
0.7640837138508373,789.5149812191012,789.4461934289848,0.05664627037398271,0.24697367680344784,0.24702632319655216,0.3547195771027452,2164.055513750406,3742.825275900663
0.767254185692542,789.6288519843758,789.5605247438971,0.05699654431437974,0.24710040642255432,0.24689959357744568,0.35471957710274526,2163.833249923484,3748.042917924264
0.7704246575342467,789.7428924977825,789.6750260657744,0.05734778471960576,0.24722748571003614,0.24677251428996388,0.35471957710274526,2163.610372833208,3753.2510460971516
0.7735951293759514,789.8571030725738,789.7896977077351,0.057699992854473074,0.2473549151235042,0.2466450848764958,0.3547195771027453,2163.3868816770005,3758.4497037256833
0.7767656012176561,789.9714840234909,789.9045399841496,0.0580531699886397,0.2474826951223226,0.2465173048776774,0.3547195771027454,2163.1627756492085,3763.638933802986
0.7799360730593609,790.0860356667938,790.0195532106508,0.05840731739659357,0.24761082616760297,0.24638917383239703,0.3547195771027454,2162.938053941116,3768.8187790122124
0.7831065449010656,790.2007583202944,790.1347377041477,0.058762436357636845,0.24773930872219865,0.24626069127780137,0.35471957710274543,2162.71271574095,3773.989281729756
0.7862770167427703,790.3156523033914,790.2500937828374,0.05911852815587031,0.24786814325069914,0.24613185674930085,0.3547195771027455,2162.486760233893,3779.150484028423
0.789447488584475,790.4307179371095,790.3656217662202,0.05947559408017798,0.24799733021942463,0.24600266978057536,0.3547195771027455,2162.260186602095,3784.3024276805595
0.7926179604261797,790.5459555441407,790.4813219751138,0.05983363542421178,0.24812687009642018,0.24587312990357982,0.35471957710274554,2162.0329940246766,3789.4451541611425
0.7957884322678843,790.66136544889,790.5971947316708,0.06019265348637636,0.2482567633514505,0.24574323664854952,0.3547195771027456,2161.8051816777447,3794.5787046508267
0.798958904109589,790.7769479775242,790.7132403593962,0.06055264956981412,0.24838701045599437,0.24561298954400562,0.35471957710274565,2161.5767487344,3799.703120038956
0.8021293759512937,790.8927034580252,790.8294591831659,0.0609136249823902,0.24851761188323934,0.24548238811676065,0.35471957710274565,2161.3476943647456,3804.8184409265314
0.8052998477929986,791.0086322202485,790.9458515292481,0.06127558103667776,0.24864856810807628,0.2453514318919237,0.3547195771027457,2161.118017735898,3809.924707629144
0.8084703196347033,791.1247345959853,791.0624177253251,0.06163851904994329,0.24877987960709405,0.24522012039290594,0.35471957710274576,2160.887718011995,3815.0219601798685
0.811640791476408,791.241010919031,791.1791581005173,0.0620024403441321,0.24891154685857447,0.24508845314142555,0.35471957710274576,2160.656794354205,3820.1102383321213
0.8148112633181127,791.3574615252603,791.2960729854092,0.06236734624585394,0.24904357034248678,0.2449564296575132,0.3547195771027458,2160.425245920738,3825.1895815624835
0.8179817351598174,791.4740867527062,791.4131627120776,0.06273323808636869,0.24917595054048283,0.2448240494595172,0.3547195771027459,2160.1930718668527,3830.2600290734836
0.8211522070015221,791.5908869416487,791.5304276141213,0.06310011720157227,0.2493086879358916,0.2446913120641084,0.35471957710274593,2159.9602713448653,3835.32161979635
0.8243226788432269,791.7078624347099,791.6478680266946,0.06346798493198261,0.24944178301371447,0.24455821698628555,0.35471957710274593,2159.72684350416,3840.3743923937277
0.8274931506849316,791.8250135769576,791.7654842865414,0.06383684262272579,0.24957523626062,0.24442476373938,0.354719577102746,2159.492787491197,3845.4183852623596
0.8306636225266363,791.9423407160176,791.883276732035,0.06420669162352233,0.24970904816493905,0.24429095183506097,0.35471957710274604,2159.25810244952,3850.453636535737
0.833834094368341,792.0598442021967,792.0012457032185,0.06457753328867358,0.24984321921665978,0.24415678078334024,0.3547195771027461,2159.022787519767,3855.4801840867176
0.8370045662100457,792.1775243886163,792.1193915418495,0.06494936897704832,0.24997774990742286,0.24402225009257714,0.3547195771027461,2158.7868418396783,3860.498065530109
0.8401750380517504,792.2953816313571,792.2377145914495,0.06532220005206946,0.2501126407305167,0.24388735926948327,0.35471957710274615,2158.5502645441024,3865.507318225225
0.8433455098934551,792.4134162896177,792.3562151973553,0.06569602788170087,0.2502478921808727,0.24375210781912732,0.3547195771027462,2158.3130547650085,3870.5079792784045
0.8465159817351599,792.5316287258863,792.4748937067769,0.06607085383843446,0.25038350475506027,0.24361649524493975,0.35471957710274626,2158.075211631492,3875.5000855455114
0.8496864535768646,792.6500193061294,792.593750468859,0.06644667929927733,0.2505194789512827,0.24348052104871734,0.3547195771027463,2157.8367342697816,3880.483673634393
0.8528569254185693,792.7685883999949,792.7127858347474,0.06682350564573918,0.25065581526937203,0.24334418473062797,0.3547195771027463,2157.5976218032506,3885.4587799073197
0.856027397260274,792.8873363810353,792.8320001576623,0.0672013342638198,0.2507925142107852,0.2432074857892148,0.3547195771027464,2157.3578733524237,3890.4254404833864
0.8591978691019787,793.0062636269511,792.9513937929765,0.06758016654399686,0.2509295762785989,0.24307042372140109,0.35471957710274643,2157.117488034982,3895.3836912408983
0.8623683409436834,793.1253705198548,793.0709670983016,0.06796000388121382,0.2510670019775058,0.2429329980224942,0.3547195771027465,2156.876464965775,3900.3335678197186
0.8655388127853881,793.2446574465599,793.1907204335795,0.06834084767486807,0.2512047918138098,0.2427952081861902,0.35471957710274654,2156.6348032568244,3905.275105623597
0.8687092846270928,793.3641247988957,793.3106541611846,0.06872269932879939,0.25134294629542225,0.24265705370457777,0.3547195771027466,2156.392502017334,3910.2083398224713
0.8718797564687976,793.4837729740506,793.4307686460319,0.06910556025127831,0.25148146593185744,0.2425185340681426,0.3547195771027466,2156.149560353696,3915.13330535474
0.8750502283105023,793.6036023749473,793.5510642556967,0.06948943185499533,0.25162035123422877,0.24237964876577126,0.35471957710274665,2155.905977369497,3920.0500369295182
0.878220700152207,793.7236134106518,793.6715413605434,0.0698743155570497,0.2517596027152449,0.2422403972847551,0.3547195771027467,2155.661752165528,3924.9585690288623
0.8813911719939117,793.843806496819,793.7922003338659,0.07026021277893908,0.2518992208892057,0.2421007791107943,0.35471957710274676,2155.416883839787,3929.858935909975
0.8845616438356165,793.9641820561818,793.9130415520401,0.0706471249465491,0.25203920627199866,0.24196079372800136,0.3547195771027468,2155.171371487488,3934.7511716073923
0.8877321156773212,794.0847405190824,794.0340653946902,0.07103505349014345,0.25217955938109526,0.24182044061890473,0.3547195771027469,2154.9252142010687,3939.6353099351395
0.890902587519026,794.2054823240543,794.1552722448688,0.07142399984435437,0.2523202807355475,0.24167971926445245,0.3547195771027469,2154.6784110701924,3944.5113844888783
0.8940730593607307,794.3264079184568,794.2766624892533,0.07181396544817326,0.25246137085598463,0.24153862914401536,0.35471957710274693,2154.4309611817575,3949.379428648024
0.8972435312024354,794.4475177591705,794.3982365183602,0.07220495174494201,0.2526028302646098,0.24139716973539024,0.354719577102747,2154.1828636199025,3954.23947557785
0.9004140030441401,794.5688123133548,794.5199947267774,0.07259696018234459,0.25274465948519703,0.24125534051480294,0.35471957710274704,2153.934117466009,3959.091558231574
0.9035844748858448,794.6902920592772,794.6419375134176,0.07298999221239907,0.2528868590430888,0.24111314095691122,0.3547195771027471,2153.6847217987097,3963.935709352422
0.9067549467275495,794.8119574872205,794.7640652817939,0.07338404929145041,0.25302942946519263,0.24097057053480733,0.35471957710274715,2153.4346756938908,3968.771961475684
0.9099254185692542,794.9338091004734,794.8863784403214,0.07377913288016354,0.2531723712799793,0.24082762872002067,0.3547195771027472,2153.1839782246984,3973.6003469307484
0.913095890410959,795.0558474164151,795.0088774026441,0.0741752444435171,0.25331568501748025,0.24068431498251977,0.35471957710274726,2152.932628461541,3978.420897843126
0.9162663622526637,795.1780729677002,795.1315625879918,0.0745723854507981,0.2534593712092855,0.24054062879071447,0.3547195771027473,2152.6806254720923,3983.233646136461
0.9194368340943684,795.3004863035576,795.2544344215697,0.0749705573755969,0.2536034303885424,0.24039656961145767,0.3547195771027474,2152.4279683212962,3988.0386235345286
0.9226073059360731,795.4230879912083,795.3774933349831,0.07536976169580327,0.25374786308995334,0.24025213691004668,0.35471957710274743,2152.1746560713686,3992.8358615632233
0.9257777777777778,795.5458786174199,795.5007397667005,0.0757699998936032,0.2538926698497755,0.24010733015022448,0.3547195771027475,2151.920687781799,3997.6253915525413
0.9289482496194825,795.6688587902066,795.624174162558,0.0761712734554766,0.2540378512058195,0.23996214879418049,0.3547195771027475,2151.6660625093523,4002.4072446385535
0.9321187214611872,795.7920291406908,795.747796976312,0.07657358387219614,0.254183407697449,0.23981659230255098,0.35471957710274754,2151.4107793080684,4007.18145176537
0.935289193302892,795.9153903251406,795.8716086702403,0.07697693263882703,0.2543293398655808,0.2396706601344192,0.3547195771027476,2151.154837229265,4011.948043687107
0.9384596651445967,796.0389430272015,795.9956097158001,0.07738132125472816,0.25447564825268504,0.23952435174731493,0.35471957710274765,2150.8982353215356,4016.7070509698488
0.9416301369863014,796.162687960341,796.1198005943459,0.07778675122355443,0.25462233340278634,0.23937766659721366,0.3547195771027477,2150.640972630745,4021.4585039936064
0.9448006088280062,796.2866258705247,796.2441817979143,0.07819322405326067,0.25476939586146485,0.23923060413853514,0.35471957710274776,2150.383048200032,4026.202432954286
0.9479710806697109,796.410757539149,796.3687538300813,0.07860074125610696,0.25491683617585853,0.23908316382414146,0.3547195771027478,2150.124461069803,4030.9388678656555
0.9511415525114156,796.535083786254,796.4935172069012,0.07900930434866585,0.25506465489466545,0.2389353451053345,0.3547195771027479,2149.8652102777282,4035.6678385613227
0.9543120243531203,796.6596054740428,796.618472457931,0.07941891485183136,0.25521285256814735,0.23878714743185264,0.35471957710274793,2149.605294858734,4040.3893746967196
0.9574824961948251,796.7843235107398,796.7436201273536,0.07982957429083004,0.2553614297481334,0.2386385702518666,0.354719577102748,2149.3447138449988,4045.103505751105
0.9606529680365298,796.909238854817,796.8689607752058,0.08024128419523442,0.2555103869880251,0.23848961301197494,0.35471957710274804,2149.0834662659436,4049.8102610295773
0.9638234398782345,797.0343525196269,796.9944949787232,0.08065404609897883,0.25565972484280214,0.23834027515719788,0.3547195771027481,2148.821551148222,4054.509669665112
0.9669939117199392,797.1596655784804,797.1202233338137,0.08106786154037796,0.255809443869029,0.238190556130971,0.35471957710274815,2148.558967515707,4059.201760620621
0.9701643835616439,797.285179170213,797.2461464566719,0.08148273206214846,0.2559595446248628,0.2380404553751372,0.3547195771027482,2148.2957143894782,4063.886562691039
0.9733348554033486,797.4108945052847,797.3722649855487,0.0818986592114338,0.25611002767006225,0.23788997232993772,0.3547195771027483,2148.0317907878075,4068.564104505445
0.9765053272450533,797.5368128724685,797.4985795826931,0.08231564453983273,0.2562608935659981,0.23773910643400187,0.3547195771027484,2147.7671957261387,4073.2344145292172
0.9796757990867581,797.6629356461808,797.6250909364821,0.08273368960343175,0.2564121428756647,0.23758785712433528,0.35471957710274843,2147.5019282170683,4077.8975210662375
0.9828462709284628,797.7892642945178,797.7517997637594,0.08315279596284185,0.2565637761636933,0.23743622383630664,0.3547195771027485,2147.2359872703214,4082.5534522611356
0.9860167427701675,797.9158003880636,797.8787068124049,0.08357296518324013,0.25671579399636735,0.23728420600363265,0.35471957710274854,2146.969371892726,4087.202236101597
0.9891872146118722,798.0425456095453,798.005812864158,0.08399419883441667,0.2568681969416391,0.23713180305836098,0.3547195771027486,2146.702081088184,4091.8439004207276
0.9923576864535769,798.1695017644148,798.1331187377231,0.08441649849082718,0.25702098556914876,0.2369790144308512,0.35471957710274865,2146.434113857635,4096.478472899491
0.9955281582952816,798.296670792445,798.2606252921875,0.08483986573165207,0.2571741604502464,0.23682583954975361,0.3547195771027487,2146.165469199021,4101.105981069223
0.9986986301369865,798.4240547804364,798.3883334307835,0.08526430214086268,0.2573277221580149,0.2366722778419851,0.35471957710274876,2145.896146107245,4105.726452314234
1.0018691019786912,798.5516559761392,798.5162441050364,0.08568980930729501,0.25748167126729754,0.23651832873270245,0.3547195771027488,2145.626143574122,4110.339913874506
1.0050395738203959,798.6794768035,798.6443583193369,0.08611638882473246,0.25763600835472744,0.23636399164527255,0.3547195771027489,2145.355460588329,4114.946392848504
1.0082100456621006,798.8075198793621,798.7726771359879,0.08654404229199773,0.25779073399876096,0.23620926600123907,0.354719577102749,2145.0840961353438,4119.545916196099
1.0113805175038053,798.9357880317443,798.9012016807801,0.0869727713130553,0.25794584877971477,0.23605415122028522,0.35471957710274904,2144.812049197382,4124.138510741628
1.01455098934551,799.0642843198501,799.0299331491536,0.08740257749712571,0.2581013532798072,0.2358986467201928,0.3547195771027491,2144.5393187533236,4128.724203177104
1.0177214611872147,799.1930120559543,799.1588728130182,0.08783346245881243,0.25825724808320416,0.23574275191679583,0.35471957710274915,2144.265903778635,4133.303020065576
1.0208919330289195,799.321974829339,799.2880220283051,0.08826542781824327,0.2584135337760702,0.23558646622392984,0.3547195771027492,2143.991803245275,4137.874987844679
1.0240624048706242,799.4511765324529,799.4173822433411,0.08869847520122733,0.2585702109466253,0.23542978905337464,0.35471957710274926,2143.7170161215986,4142.440132830377
1.0272328767123289,799.5806213894895,799.5469550081406,0.08913260623942985,0.2587272801852085,0.23527271981479145,0.3547195771027494,2143.441541372243,4146.99848122091
1.0304033485540336,799.7103139875807,799.6767419847304,0.08956782257056628,0.25888474208434764,0.2351152579156524,0.35471957710274943,2143.1653779580083,4151.550059100996
1.0335738203957383,799.8402593108266,799.8067449586312,0.09000412583861835,0.2590425972388375,0.23495740276116256,0.3547195771027495,2142.888524835718,4156.094892446269
1.036744292237443,799.9704627773849,799.936965851644,0.09044151769407421,0.2592008462458271,0.23479915375417287,0.35471957710274954,2142.6109809580657,4160.633007128021
1.0399147640791477,800.1009302798557,800.0674067361016,0.0908799997941956,0.25935948970491635,0.23464051029508368,0.3547195771027496,2142.332745273449,4165.164428918233
1.0430852359208524,800.2316682292117,800.1980698507746,0.09131957380331522,0.259518528218263,0.23448147178173698,0.3547195771027497,2142.0538167257764,4169.689183494958
1.0462557077625572,800.3626836025239,800.3289576186436,0.09176024139316781,0.2596779623907033,0.23432203760929673,0.35471957710274976,2141.774194254261,4174.20729644806
1.0494261796042619,800.4939839947432,800.4600726667794,0.09220200424325888,0.2598377928298846,0.23416220717011543,0.3547195771027498,2141.4938767931844,4178.718793285351
1.0525966514459666,800.6255776747961,800.591417848606,0.09264486404127567,0.25999802014641465,0.2340019798535853,0.3547195771027499,2141.212863271637,4183.223699439168
1.0557671232876713,800.7574736462492,800.7229962688605,0.09308882248354566,0.26015864495402724,0.23384135504597273,0.35471957710275,2140.931152613227,4187.722040273406
1.058937595129376,800.889681712791,800.854811311602,0.09353388127554799,0.2603196678697672,0.23368033213023284,0.35471957710275004,2140.648743735753,4192.213841091063
1.0621080669710807,801.0222125487569,800.9868666716777,0.09398004213248483,0.260481089514197,0.23351891048580295,0.3547195771027501,2140.365635550847,4196.699127142332
1.0652785388127854,801.1550777749018,801.1191663900955,0.0944273067799199,0.2606429105116283,0.23335708948837167,0.35471957710275015,2140.0818269635643,4201.177923633263
1.0684490106544902,801.2882900395844,801.2517148938226,0.09487567695449256,0.26080513149037965,0.23319486850962032,0.35471957710275026,2139.7973168719336,4205.650255735067
1.0716194824961949,801.4218631054787,801.3845170405854,0.09532515440471721,0.26096775308306613,0.23303224691693392,0.3547195771027503,2139.5121041664465,4210.116148594082
1.0747899543378996,801.5558119418573,801.5175781693181,0.09577574089187862,0.261130775926923,0.23286922407307703,0.35471957710275037,2139.2261877294936,4214.575627342451
1.0779604261796043,801.6901528224091,801.6509041569823,0.0962274381910354,0.26129420066416914,0.23270579933583088,0.3547195771027505,2138.9395664347226,4219.028717109556
1.081130898021309,801.8249034284416,801.7845014825504,0.09668024809214562,0.2614580279424139,0.23254197205758606,0.35471957710275054,2138.6522391463295,4223.475443034243
1.0843013698630137,801.9600829571865,801.9183772990285,0.09713417240132975,0.26162225841511444,0.23237774158488556,0.3547195771027506,2138.3642047182534,4227.915830277882
1.0874718417047184,802.0957122347611,802.052539514467,0.09758921294228859,0.26178689274208816,0.2322131072579118,0.3547195771027507,2138.0754619932777,4232.349904038308
1.0906423135464232,802.2318138331461,802.1869968829684,0.0980453715578954,0.26195193159008945,0.23204806840991055,0.35471957710275076,2137.78600980202,4236.777689564635
1.0938127853881279,802.3684121903019,802.3217591067681,0.09850265011198407,0.262117375633456,0.23188262436654403,0.3547195771027508,2137.4958469617986,4241.1992121730145
1.0969832572298326,802.505533732281,802.4568369504858,0.09896105049135719,0.2622832255548357,0.2317167744451643,0.3547195771027509,2137.204972275356,4245.614497263319
1.1001537290715373,802.6432069958796,802.5922423686534,0.09942057460804016,0.2624494820460022,0.23155051795399784,0.354719577102751,2136.9133845294295,4250.023570336762
1.103324200913242,802.7814627500167,802.7279886475883,0.09988122440181049,0.26261614580876974,0.23138385419123028,0.3547195771027511,2136.6210824931486,4254.426457014439
1.1064946727549467,802.9203341136397,802.8640905625725,0.10034300184303264,0.262783217556019,0.23121678244398094,0.35471957710275115,2136.328064916231,4258.823183056771
1.1096651445966514,803.0598566675214,803.0005645511328,0.10080590893583204,0.26295069801284565,0.23104930198715434,0.35471957710275126,2136.0343305269744,4263.213774383784
1.1128356164383564,803.2000685568546,803.1374289029372,0.10126994772164248,0.2631185879178432,0.2308814120821568,0.3547195771027513,2135.739878030001,4267.598257096156
1.116006088280061,803.3410105810672,803.274703966437,0.10173512028316269,0.26328688802453515,0.23071311197546482,0.35471957710275137,2135.4447061037495,4271.976657496924
1.1191765601217658,803.4827262667984,803.4124123718441,0.10220142874875845,0.26345559910296734,0.23054440089703263,0.3547195771027515,2135.148813397681,4276.349002113733
1.1223470319634705,803.6252619195043,803.5505792693402,0.10266887529734446,0.2636247219414742,0.23037527805852576,0.35471957710275154,2134.8521985291795,4280.7153177214195
1.1255175038051752,803.7686666487318,803.6892325805229,0.1031374621637786,0.2637942573486306,0.23020574265136937,0.35471957710275165,2134.5548600801326,4285.075631364753
1.12868797564688,803.9129923617462,803.8284032600162,0.10360719164479695,0.263964206155399,0.230035793844601,0.3547195771027517,2134.256796593163,4289.429970381057
1.1318584474885847,804.0582937199579,803.9681255628846,0.10407806610551,0.26413456921747974,0.22986543078252025,0.3547195771027518,2133.9580065675063,4293.778362422431
1.1350289193302894,804.2046280524995,804.1084373120187,0.1045500879864721,0.26430534741786893,0.22969465258213106,0.35471957710275187,2133.658488454527,4298.120835477212
1.138199391171994,804.3520552214259,804.2493801580241,0.1050232598113231,0.2644765416696232,0.22952345833037682,0.354719577102752,2133.3582406528662,4302.457417890289
1.1413698630136988,804.5006374333651,804.3909998224146,0.10549758419498449,0.2646481529188248,0.22935184708117518,0.35471957710275204,2133.057261503245,4306.788138381863
1.1434835109081687,804.6003656096138,804.4858134547846,0.10581444209752569,0.26476279256702245,0.22923720743297754,0.3547195771027521,2132.8562015844586,4309.672043113022
1.1455971588026383,804.7006551910782,804.5809659422947,0.10613181428379644,0.26487761828381856,0.22912238171618146,0.35471957710275215,2132.6548153306044,4312.553364201764
1.1477108066971082,804.801525994841,804.676474097904,0.1064497016075905,0.2649926303781169,0.22900736962188312,0.35471957710275226,2132.453102199915,4315.432110455566
1.1498244545915781,804.9029980920103,804.7723556462723,0.10676810494678712,0.26510782916753545,0.22889217083246458,0.3547195771027523,2132.2510616353375,4318.308290764975
1.1519381024860478,805.0050917488546,804.8686292291152,0.10708702520464722,0.2652232149788754,0.2287767850211246,0.35471957710275237,2132.048693063714,4321.18191410454
1.1540517503805177,805.1078273623915,804.965314403134,0.1074064633111193,0.2653387881485934,0.22866121185140664,0.3547195771027524,2131.845995894953,4324.0529895333575
1.1561653982749875,805.2112253906295,805.0624316296324,0.10772642022414457,0.2654545490232739,0.22854545097672607,0.3547195771027525,2131.642969521199,4326.921526195248
1.1582790461694572,805.315306277752,805.1600022549705,0.10804689693095036,0.26557049796009735,0.22842950203990267,0.35471957710275254,2131.439613316015,4329.787533318499
1.160392694063927,805.4200903746421,805.2580484810776,0.10836789444931923,0.26568663532729886,0.22831336467270116,0.3547195771027526,2131.2359266335734,4332.65102021519
1.162506341958397,805.5255978552368,805.3565933253352,0.1086894138288194,0.26580296150461374,0.22819703849538628,0.35471957710275265,2131.0319088078786,4335.511996280028
1.1646199898528666,805.6318486293167,805.4556605692744,0.1090114561519828,0.2659194768837036,0.22808052311629645,0.3547195771027527,2130.8275591520173,4338.370470988726
1.1667336377473365,805.7388622524185,805.5552746956797,0.10933402253541492,0.2660361818685579,0.22796381813144212,0.35471957710275276,2130.6228769574564,4341.226453895867
1.1688472856418064,805.8466578336671,805.6554608138807,0.10965711413082047,0.2661530768758651,0.22784692312413488,0.3547195771027528,2130.417861493389,4344.079954632268
1.170960933536276,805.9552539423958,805.756244573218,0.10998073212592865,0.2662701623353474,0.22772983766465263,0.35471957710275287,2130.21251200615,4346.930982901826
1.173074581430746,806.0646685144981,805.8576520648993,0.11030487774530245,0.2663874386900534,0.22761256130994661,0.3547195771027529,2130.0068277187024,4349.779548477855
1.1751882293252158,806.174918759517,805.9597097127088,0.11062955225101467,0.26650490639660285,0.22749509360339712,0.35471957710275304,2129.800807830206,4352.6256611989065
1.1773018772196855,806.2860210695078,806.0624441532854,0.1109547569431767,0.26662256592537803,0.227377434074622,0.3547195771027531,2129.5944515156853,4355.4693309640925
1.1794155251141554,806.3979909307378,806.1658821069432,0.11128049316030515,0.26674041776065605,0.22725958223934395,0.35471957710275315,2129.3877579257937,4358.310567727926
1.1815291730086253,806.5108428392837,806.2700502402536,0.11160676227951286,0.2668584624006784,0.22714153759932157,0.3547195771027532,2129.1807261866943,4361.1493814947
1.183642820903095,806.6245902215644,806.3749750218469,0.11193356571651371,0.2669767003576525,0.2270232996423475,0.35471957710275326,2128.9733554000554,4363.985782312431
1.1857564687975648,806.7392453608023,806.4806825730958,0.11226090492543145,0.26709513215768227,0.2269048678423177,0.3547195771027533,2128.7656446431743,4366.819780266411
1.1878701166920347,806.854819330341,806.5871985155245,0.11258878139840482,0.26721375834062583,0.2267862416593742,0.35471957710275337,2128.5575929692236,4369.651385472391
1.1899837645865043,806.9713219346582,806.694547816923,0.1129171966649851,0.2673325794598769,0.2266674205401231,0.3547195771027535,2128.3491994076385,4372.480608069443
1.1920974124809742,807.0887616588112,806.8027546382419,0.1132461522913235,0.2674515960820713,0.22654840391792866,0.35471957710275354,2128.1404629646286,4375.3074582125755
1.1942110603754441,807.2071456269261,806.9118421833829,0.11357564987914862,0.26757080878671685,0.22642919121328314,0.3547195771027536,2127.931382623828,4378.1319460651
1.1963247082699138,807.3264795702124,807.0218325539958,0.1139056910645385,0.2676902181657489,0.22630978183425116,0.35471957710275365,2127.721957347076,4380.954081790855
1.1984383561643837,807.4467678048366,807.1327466113283,0.11423627751649257,0.26780982482301374,0.22619017517698625,0.3547195771027537,2127.51218607532,4383.773875546311
1.2005520040588535,807.5680132198426,807.2446038470694,0.11456741093531256,0.2679296293736832,0.22607037062631685,0.35471957710275376,2127.3020677296468,4386.591337472629
1.2026656519533232,807.6902172751551,807.35742226496,0.11489909305080444,0.2680496324436034,0.22595036755639658,0.35471957710275387,2127.09160121242,4389.406477687717
1.204779299847793,807.8133800095504,807.4712182747552,0.11523132562031474,0.268169834668585,0.22583016533141498,0.3547195771027539,2126.8807854085267,4392.219306278355
1.206892947742263,807.9375000583409,807.586006599878,0.11556411042661698,0.268290236693638,0.22570976330636197,0.354719577102754,2126.669619186722,4395.029833292428
1.2090065956367326,808.0625746803813,807.701800199848,0.11589744927566656,0.2684108391721597,0.2255891608278403,0.35471957710275404,2126.458101401049,4397.838068731331
1.2111202435312025,808.1885997938876,807.818610208285,0.11623134399424254,0.26853164276508135,0.22546835723491862,0.35471957710275415,2126.246230892339,4400.644022542598
1.2132338914256724,808.3155700204477,807.9364458870001,0.1165657964274966,0.2686526481399816,0.22534735186001842,0.3547195771027542,2126.0340064897637,4403.447704612777
1.215347539320142,808.443478736515,808.0553145963916,0.11690080843643005,0.2687738559701733,0.2252261440298267,0.35471957710275426,2125.8214270124377,4406.249124760633
1.217461187214612,808.572318131606,808.1752217820842,0.11723638189531999,0.26889526693377264,0.22510473306622736,0.3547195771027543,2125.6084912710526,4409.048292730681
1.2195748351090818,808.7020792723598,808.2961709774787,0.11757251868911499,0.26901688171275684,0.22498311828724316,0.3547195771027544,2125.395198069527,4411.845218187095
1.2216884830035515,808.8327521715914,808.4181638216319,0.11790922071082165,0.2691387009920183,0.22486129900798166,0.3547195771027545,2125.1815462066675,4414.639910708026
1.2238021308980214,808.9643258614423,808.5412000916708,0.11824648985890106,0.26926072545842317,0.22473927454157686,0.35471957710275454,2124.967534477819,4417.432379780351
1.2259157787924913,809.0967884697375,808.6652777487476,0.1185843280346938,0.2693829557998791,0.22461704420012096,0.3547195771027546,2124.7531616764995,4420.222634794849
1.228029426686961,809.2301272986689,808.7903929963957,0.11892273713989143,0.2695053927044208,0.2244946072955792,0.3547195771027547,2124.5384265960042,4423.010685041854
1.2301430745814308,809.3643289049497,808.9165403500159,0.11926171907406961,0.2696280368593176,0.22437196314068242,0.35471957710275476,2124.323328030971,4425.796539707363
1.2322567224759007,809.4993791806305,809.0437127161417,0.11960127573229716,0.2697508889502081,0.2242491110497919,0.3547195771027548,2124.1078647788977,4428.580207869602
1.2343703703703703,809.6352634338116,809.171901480075,0.11994140900283363,0.2698739496602674,0.2241260503397326,0.3547195771027549,2123.892035641602,4431.361698496079
1.2364840182648402,809.7719664685483,809.3010966004624,0.1202821207649258,0.2699972196694096,0.2240027803305904,0.354719577102755,2123.6758394266217,4434.141020441076
1.23859766615931,809.9094726633061,809.4312867093912,0.12062341288671093,0.27012069965352953,0.22387930034647044,0.35471957710275503,2123.459274948544,4436.918182443603
1.2407113140537798,810.0477660473949,809.562459216613,0.12096528722323471,0.2702443902837855,0.22375560971621453,0.35471957710275515,2123.242341030262,4439.6931931257905
1.2428249619482497,810.1868303748778,809.6946004165617,0.12130774561458767,0.27036829222592473,0.22363170777407526,0.3547195771027552,2123.0250365041607,4442.466060991698
1.2449386098427195,810.3266491955234,809.8276955969036,0.12165078988416309,0.2704924061396537,0.2235075938603463,0.35471957710275526,2122.807360213218,4445.236794426537
1.2470522577371892,810.4672059224439,809.9617291474458,0.1219944218370382,0.2706167326780519,0.2233832673219481,0.35471957710275537,2122.5893110120346,4448.005401696268
1.249165905631659,810.6084838961219,810.0966846683289,0.12233864325847807,0.2707412724870309,0.22325872751296913,0.3547195771027554,2122.3708877677846,4450.771890947574
1.251279553526129,810.7504664446034,810.2325450765364,0.12268345591255962,0.2708660262048362,0.22313397379516384,0.3547195771027555,2122.1520893610846,4453.536270208166
1.2533932014205986,810.8931369396911,810.3692927098652,0.12302886154091365,0.2709909944615923,0.2230090055384077,0.3547195771027556,2121.932914686796,4456.298547387403
1.2555068493150685,811.0364788490303,810.5069094276128,0.12337486186157966,0.27111617787888853,0.2228838221211115,0.35471957710275565,2121.713362654748,4459.058730277221
1.2576204972095384,811.1804757840346,810.6453767073483,0.12372145856796762,0.271241577069403,0.222758422930597,0.35471957710275576,2121.4934321904,4461.8168265533095
1.259734145104008,811.325111543641,810.7846757372506,0.12406865332792087,0.27136719263656384,0.2226328073634362,0.3547195771027558,2121.2731222354346,4464.572843776549
1.261847792998478,811.4703701539344,810.9247875035877,0.12441644778287211,0.27149302517424373,0.2225069748257563,0.3547195771027559,2121.052431748291,4467.326789394659
1.2639614408929478,811.6162359037072,811.0656928730234,0.12476484354708405,0.2716190752664853,0.22238092473351467,0.354719577102756,2120.8313597046517,4470.078670744042
1.2660750887874175,811.7626933760628,811.2073726695195,0.1251138422069667,0.27174534348725404,0.22225465651274595,0.35471957710275603,2120.609905097871,4472.828495051811
1.2681887366818874,811.9097274761903,811.3498077456907,0.1254634453204613,0.2718718304002153,0.22212816959978468,0.35471957710275615,2120.3880669393675,4475.576269437953
1.2703023845763572,812.0573234554626,811.49297904854,0.12581365441648082,0.27199853655853207,0.22200146344146798,0.3547195771027562,2120.1658442589824,4478.3220009176275
1.272416032470827,812.2054669320279,811.6368676795734,0.12616447099439793,0.2721254625046794,0.2218745374953206,0.3547195771027563,2119.9432361052977,4481.065696403583
1.2745296803652968,812.354143908077,811.78145494935,0.1265158965235688,0.2722526087702726,0.22174739122972742,0.35471957710275637,2119.720241545944,4483.807362708646
1.2766433282597667,812.5033407839798,811.9267224265734,0.12686793244288253,0.2723799758759038,0.22162002412409618,0.3547195771027565,2119.4968596678864,4486.547006548295
1.2787569761542363,812.6530443694863,812.0726519818732,0.1272205801603255,0.2725075643309846,0.22149243566901544,0.35471957710275653,2119.2730895776954,4489.2846345432845
1.2808706240487062,812.803241892199,812.219225826463,0.12757384105254913,0.27263537463358933,0.22136462536641066,0.35471957710275664,2119.0489304018265,4492.02025322231
1.282984271943176,812.9539210035141,812.3664265458871,0.12792771646442985,0.2727634072702963,0.2212365927297037,0.3547195771027567,2118.824381286899,4494.753869024691
1.285097919837646,813.1050697822352,812.5142371290909,0.1282822077086103,0.2728916627160215,0.22110833728397847,0.3547195771027568,2118.599441399985,4497.485488303075
1.2872115677321159,813.2566767360562,812.6626409930701,0.12863731606500933,0.2730201414338415,0.22097985856615848,0.3547195771027569,2118.37410992892,4500.215117326134
1.2893252156265858,813.4087308011042,812.811622003357,0.12899304278029033,0.2731488438748009,0.22085115612519915,0.354719577102757,2118.148386082644,4502.942762281249
1.2914388635210556,813.5612213397291,812.9611644906206,0.12934938906727456,0.2732777704777,0.22072222952229995,0.3547195771027571,2117.9222690915685,4505.66842927718
1.2935525114155253,813.7141381367164,813.111253263649,0.1297063561042882,0.2734069216688592,0.22059307833114078,0.35471957710275714,2117.6957582079963,4508.392124346694
1.2956661593099952,813.8674713940944,813.2618736189874,0.13006394503443094,0.27353629786185346,0.22046370213814653,0.35471957710275726,2117.4688527065805,4511.113853449166
1.297779807204465,814.0212117246934,813.4130113475032,0.13042215696475182,0.27366589945721476,0.2203341005427852,0.35471957710275737,2117.241551884852,4513.833622473129
1.2998934550989347,814.17535014461,813.5646527381391,0.1307809929653213,0.2737957268420962,0.22020427315790383,0.3547195771027574,2117.0138550638053,4516.551437238769
1.3020071029934046,814.3298780647168,813.7167845791076,0.13114045406818445,0.273925780389893,0.22007421961010695,0.35471957710275753,2116.7857615885628,4519.2673035003745
1.3041207508878745,814.4847872813485,813.8693941567778,0.13150054126618105,0.2740560604598163,0.2199439395401837,0.3547195771027576,2116.557270829125,4521.981226948715
1.3062343987823442,814.6400699662861,814.0224692524813,0.13186125551161937,0.2741865673964124,0.2198134326035876,0.3547195771027577,2116.328382181213,4524.69321321336
1.308348046676814,814.7957186561498,814.1759981374663,0.13222259771478637,0.2743173015290245,0.21968269847097552,0.3547195771027578,2116.099095067209,4527.403267864928
1.310461694571284,814.9517262413057,814.3299695662054,0.13258456874227897,0.27444826317118864,0.21955173682881135,0.35471957710275787,2115.8694089372207,4530.11139641727
1.3125753424657536,815.108085954375,814.4843727682558,0.13294716941513934,0.2745794526199591,0.21942054738004094,0.354719577102758,2115.6393232702617,4532.817604329573
1.3146889903602235,815.2647913584325,814.6391974388554,0.13331040050677545,0.2747108701551559,0.2192891298448441,0.3547195771027581,2115.4088375755723,4535.521897008402
1.3168026382546933,815.4218363349681,814.7944337284243,0.1336742627406478,0.2748425160385282,0.21915748396147186,0.3547195771027582,2115.1779513940846,4538.224279809651
1.318916286149163,815.5792150716798,814.9500722311299,0.13403875678770158,0.27497439051282485,0.21902560948717514,0.35471957710275825,2114.946664300055,4540.924758040438
1.321029934043633,815.7369220501554,815.1061039726583,0.13440388326352243,0.27510649380076574,0.21889350619923428,0.35471957710275837,2114.7149759028694,4543.623336960909
1.3231435819381028,815.8949520334949,815.2625203973254,0.13476964272519112,0.2752388261039034,0.21876117389609662,0.3547195771027585,2114.482885849035,4546.320021785978
1.3252572298325724,816.0533000539187,815.4193133546448,0.13513603566781296,0.27537138760136765,0.21862861239863232,0.3547195771027586,2114.250393824387,4549.014817686981
1.3273708777270423,816.211961400401,815.5764750854628,0.13550306252069347,0.27550417844848196,0.21849582155151803,0.35471957710275864,2114.0174995565117,4551.7077297932665
1.3294845256215122,816.3709316063546,815.7339982077528,0.13587072364313096,0.27563719877524084,0.21836280122475915,0.35471957710275875,2113.7842028174205,4554.398763193708
1.3315981735159819,816.5302064373989,815.891875702159,0.13623901931979424,0.275770448684638,0.218229551315362,0.35471957710275887,2113.550503426477,4557.087922938139
1.3337118214104517,816.6897818792289,816.0501008973607,0.1366079497556509,0.27590392825083093,0.2180960717491691,0.354719577102759,2113.3164012536213,4559.775214038722
1.3358254693049216,816.8496541255981,816.2086674553254,0.1369775150704083,0.27603763751712995,0.21796236248287007,0.3547195771027591,2113.081896222894,4562.4606414712425
1.3379391171993913,817.0098195664284,816.3675693565062,0.13734771529242754,0.27617157649379614,0.21782842350620388,0.35471957710275914,2112.8469883162998,4565.144210176338
1.3400527650938612,817.1702747760514,816.5268008850312,0.1377185503520661,0.27630574515563266,0.21769425484436727,0.35471957710275925,2112.6116775780274,4567.825925060651
1.342166412988331,817.3310165015814,816.6863566139253,0.13809002007440188,0.2764401434393527,0.21755985656064733,0.35471957710275936,2112.3759641190745,4570.50579099792
1.3442800608828007,817.492041651419,816.8462313903966,0.13846212417128728,0.27657477124070373,0.21742522875929626,0.3547195771027595,2112.1398481222823,4573.1838128300005
1.3463937087772706,817.6533472838778,817.006420321211,0.13883486223267769,0.27670962841133123,0.2172903715886688,0.3547195771027596,2111.903329847842,4575.859995367829
1.3485073566717405,817.814930595923,817.1669187581778,0.1392082337171736,0.2768447147553559,0.2171552852446441,0.3547195771027597,2111.6664096392938,4578.534343392298
1.3506210045662101,817.9767889120101,817.327722283753,0.13958223794171173,0.27698003002564464,0.2170199699743554,0.3547195771027598,2111.429087930072,4581.206861655106
1.35273465246068,818.1389196730048,817.4888266967716,0.1399568740703337,0.2771155739197463,0.2168844260802537,0.3547195771027599,2111.1913652506273,4583.877554879509
1.35484830035515,818.3013204251656,817.6502279983082,0.14033214110195577,0.27725134607546753,0.2167486539245325,0.35471957710276003,2110.9532422361904,4586.546427761028
1.3569619482496196,818.4639888091635,817.81192237766,0.1407080378570568,0.2773873460660557,0.2166126539339443,0.35471957710276014,2110.714719635218,4589.2134849680915
1.3590755961440895,818.6269225491153,817.9739061984473,0.14108456296319435,0.2775235733949593,0.2164764266050407,0.35471957710276025,2110.475798318583,4591.878731142618
1.3611892440385593,818.7901194415975,818.136175984814,0.14146171483925188,0.27766002749012797,0.21633997250987205,0.35471957710276036,2110.236479289573,4594.542170900539
1.363302891933029,818.9535773446121,818.2987284077126,0.1418394916783118,0.27779670769781634,0.21620329230218369,0.3547195771027605,2109.9967636947536,4597.2038088322515
1.3654165398274989,819.1172941664663,818.4615602712503,0.14221789142904184,0.2779336132758494,0.2160663867241506,0.3547195771027606,2109.756652835783,4599.863649503029
1.3675301877219688,819.2812678545284,818.6246684990706,0.14259691177547063,0.2780707433863054,0.21592925661369458,0.3547195771027607,2109.5161481822447,4602.521697453356
1.3696438356164384,819.4454963838197,818.788050120739,0.14297655011502244,0.27820809708756866,0.21579190291243133,0.3547195771027608,2109.275251385585,4605.177957199206
1.3717574835109083,819.6099777453944,818.9517022581012,0.14335680353466748,0.2783456733257007,0.21565432667429923,0.3547195771027609,2109.033964294245,4607.83243323226
1.3738711314053782,819.774709934466,819.1156221115724,0.1437376687850351,0.2784834709250747,0.2155165290749253,0.35471957710276103,2108.79228897009,4610.485130020063
1.3759847792998479,819.9396909382211,819.2798069463202,0.14411914225232564,0.27862148857821245,0.21537851142178752,0.35471957710276114,2108.5502277062315,4613.136052006115
1.3780984271943177,820.1049187232737,819.4442540782911,0.1445012199278444,0.27875972483476263,0.21524027516523736,0.35471957710276125,2108.3077830463576,4615.7852036098975
1.3802120750887876,820.270391222697,819.6089608600372,0.14488389737496798,0.27889817808954837,0.21510182191045166,0.35471957710276136,2108.0649578056955,4618.432589226831
1.3823257229832573,820.4361063225749,819.7739246662851,0.14526716969334136,0.2790368465696141,0.2149631534303859,0.35471957710276153,2107.8217550937306,4621.078213228172
1.3844393708777272,820.6020618480052,819.939142879194,0.14565103148008937,0.2791757283201918,0.21482427167980822,0.35471957710276164,2107.5781783388197,4623.72207996083
1.386553018772197,820.7682555484879,820.1046128732415,0.14603547678781176,0.27931482118950335,0.21468517881049665,0.35471957710276175,2107.334231314843,4626.3641937471175
1.3886666666666667,820.9346850826242,820.2703319996733,0.14642049907911797,0.2794541228123115,0.21454587718768847,0.35471957710276186,2107.0899181700534,4629.004558884419
1.3907803145611366,821.1013480020521,820.4362975704495,0.14680609117744217,0.27959363059212433,0.2144063694078757,0.354719577102762,2106.845243458291,4631.643179644784
1.3928939624556065,821.2682417345341,820.6025068416143,0.1471922452138635,0.2797333416819548,0.21426665831804523,0.3547195771027621,2106.600212172723,4634.280060274439
1.3950076103500761,821.4353635661173,820.7689569960162,0.14757895256964457,0.2798732529635312,0.2141267470364688,0.35471957710276225,2106.3548297823077,4636.9152049932
1.397121258244546,821.6027106222749,820.9356451252977,0.14796620381418443,0.2800133610248486,0.2139866389751514,0.35471957710276236,2106.109102271165,4639.548617993812
1.399234906139016,821.7702798479361,821.1025682110715,0.148353988638071,0.2801536621359466,0.21384633786405338,0.3547195771027625,2105.863036181059,4642.1803034411705
1.4013485540334856,821.9380679863136,821.2697231051981,0.14874229578090514,0.2802941522227966,0.2137058477772034,0.35471957710276264,2105.6166386571963,4644.810265471463
1.4034622019279555,822.1060715564253,821.437106509074,0.14913111295355866,0.28043482683917414,0.21356517316082582,0.35471957710276275,2105.3699174975545,4647.438508191183
1.4055758498224253,822.2742868292125,821.6047149518386,0.14952042675452004,0.28057568113639303,0.21342431886360697,0.35471957710276286,2105.1228812059676,4650.065035676037
1.407689497716895,822.4427098021519,821.7725447674018,0.14991022257997835,0.28071670983077324,0.21328329016922679,0.35471957710276303,2104.8755390491788,4652.689851969735
1.4098031456113649,822.6113361722536,821.9405920702005,0.15030048452729297,0.28085790716871634,0.21314209283128369,0.35471957710276314,2104.627901118096,4655.312961082645
1.4119167935058348,822.7801613073481,822.1088527295786,0.15069119529150204,0.28099926688926213,0.21300073311073792,0.35471957710276325,2104.379978393458,4657.9343669903155
1.4140304414003044,822.9491802155534,822.277322342696,0.15108233605453245,0.2811407821840044,0.21285921781599562,0.3547195771027634,2104.1317828161395,4660.554073631849
1.4161440892947743,823.1183875128268,822.4459962058671,0.15147388636679118,0.2812824456542508,0.21271755434574915,0.35471957710276353,2103.883327362284,4663.172084908128
1.4182577371892442,823.2877773885065,822.6148692842302,0.15186582402084442,0.28142424926531967,0.2125757507346803,0.3547195771027637,2103.634626123459,4665.788404679874
1.4203713850837139,823.457343568756,822.7839361796606,0.15225812491692814,0.2815661842978815,0.21243381570211853,0.3547195771027638,2103.385694391998,4668.4030367655305
1.4224850329781837,823.6270792778357,822.9531910968354,0.15265076292008378,0.28170824129627026,0.21229175870372977,0.3547195771027639,2103.1365487516528,4671.015984938982
1.4245986808726536,823.7969771971418,823.1226278073763,0.153043709708776,0.2818504100137135,0.21214958998628647,0.3547195771027641,2102.8872071736514,4673.627252927051
1.4267123287671233,823.9670294219662,823.2922396120017,0.15343693461493355,0.2819926793544587,0.21200732064554131,0.3547195771027642,2102.637689118198,4676.236844406819
1.4288259766615932,824.1372274159589,823.4620193006391,0.15383040445545426,0.2821350373128113,0.2118649626871887,0.35471957710276436,2102.3880156413948,4678.844763002721
1.430939624556063,824.3075619633008,823.6319591104611,0.1542240833553404,0.2822774709091452,0.21172252909085482,0.3547195771027645,2102.138209507464,4681.451012283423
1.4330532724505327,824.4780231186294,823.8020506818414,0.15461793256278183,0.2824199661229993,0.21158003387700067,0.35471957710276464,2101.8882953060906,4684.05559575845
1.4351669203450026,824.6486001548009,823.9722850122469,0.15501191025668168,0.2825625078234403,0.21143749217655972,0.3547195771027648,2101.638299574553,4686.658516874597
1.4372805682394725,824.8192815086245,824.1426524081215,0.15540597134733158,0.28270507969694625,0.21129492030305377,0.3547195771027649,2101.388250924203,4689.259779012061
1.4393942161339421,824.9900547247587,824.3131424348588,0.15580006727118856,0.28284766417315693,0.21115233582684306,0.3547195771027651,2101.1381801706907,4691.859385480321
1.441507864028412,825.1609063980302,824.4837438650073,0.156194145780988,0.28299024234893644,0.21100975765106358,0.35471957710276525,2100.888120467144,4694.45733951376
1.443621511922882,825.3318221145104,824.6544446249093,0.15658815073274823,0.2831327939113107,0.21086720608868925,0.35471957710276536,2100.6381074393253,4697.053644266993
1.4457351598173516,825.5027863917753,824.8252317400418,0.1569820218715855,0.2832752970599757,0.21072470294002432,0.3547195771027655,2100.3881793215414,4699.648302809923
1.4478488077118215,825.6737826188687,824.9960912793974,0.15737569461865877,0.2834177284302129,0.21058227156978707,0.3547195771027657,2100.1383770918346,4702.241318122534
1.4499624556062913,825.8447929966,825.1670082993285,0.1577690998620042,0.2835600630172139,0.2104399369827861,0.3547195771027658,2099.8887446047074,4704.832693089383
1.452076103500761,826.0157984789246,825.3379667873706,0.15816216375449615,0.2837022741029816,0.2102977258970184,0.35471957710276597,2099.639328719326,4707.422430493827
1.4541897513952309,826.1867787162819,825.5089496066591,0.15855480752267476,0.283844333187164,0.21015566681283598,0.35471957710276614,2099.3901794208264,4710.010533011999
1.4563033992897008,826.3577120018998,825.6799384416593,0.1589469472907043,0.2839862099233623,0.21001379007663767,0.3547195771027663,2099.1413499320215,4712.597003206514
1.4584170471841704,826.5285752222105,825.8509137460499,0.15933849392426055,0.28412787206264883,0.20987212793735113,0.3547195771027664,2098.89289681246,4715.181843519955
1.4605306950786403,826.6993438126641,826.02185469371,0.15972935289966708,0.28426928540622054,0.20973071459377943,0.3547195771027666,2098.6448800414655,4717.76505626816
1.4626443429731102,826.8699917203559,826.1927391338835,0.1601194242040938,0.2844104137692906,0.2095895862307094,0.35471957710276675,2098.3973630814653,4720.346643633323
1.4647579908675799,827.0404913750122,826.3635435517075,0.1605086022730722,0.28455121895848134,0.20944878104151865,0.3547195771027669,2098.1504129176383,4722.926607656961
1.4668716387620497,827.2108136699852,826.5342430354037,0.16089677597193489,0.2846916607651091,0.2093083392348909,0.3547195771027671,2097.9041000696943,4725.504950232809
1.4689852866565196,827.38092795499,826.704811251524,0.16128382862802515,0.28483169697683763,0.20916830302316236,0.35471957710276725,2097.658498571434,4728.081673099666
1.4710989345509893,827.5508020423702,826.8752204297211,0.1616696381206049,0.284971283410207,0.209028716589793,0.3547195771027674,2097.4136859136997,4730.656777834272
1.474269406392694,827.8050886713855,827.1304717087284,0.16224574131576527,0.28517971838086426,0.2088202816191358,0.35471957710276764,2097.0481237462336,4734.516403969652
1.4774398782343987,828.0586387563134,827.3851944817129,0.16281830843552958,0.2853868739943201,0.20861312600567988,0.35471957710276786,2096.684805370152,4738.3723964354185
1.4806103500761036,828.3113253944605,827.6392771039092,0.1633868652733223,0.28559257868194865,0.20840742131805132,0.35471957710276814,2096.324031689851,4742.224758294295
1.4837808219178084,828.5630154126278,827.8926012812425,0.16395091790930402,0.2857966537428364,0.2082033462571636,0.35471957710276836,2095.9661161186364,4746.073491625607
1.485894469812278,828.7301868784905,828.0610015256923,0.16432419966510564,0.28593170762288944,0.20806829237711058,0.3547195771027686,2095.7292528467906,4748.637298563396
1.488008117706748,828.8968118431177,828.2289713426692,0.16469509984823058,0.28606589984649766,0.2079341001535023,0.35471957710276875,2095.4939007848757,4751.19949336943
1.4901217656012176,829.0628475867912,828.396471640272,0.16506346370822106,0.2861991744247213,0.20780082557527868,0.3547195771027689,2095.260158128689,4753.760075888468
1.4922354134956874,829.2282509771294,828.5634625665436,0.1654291362176397,0.28633147526840885,0.20766852473159114,0.3547195771027691,2095.028123249784,4756.319045753113
1.4943490613901573,829.3929786980373,828.7299036784437,0.16579196302536456,0.2864627465331008,0.2075372534668992,0.35471957710276925,2094.797894090562,4758.8764023831445
1.496462709284627,829.5569874952997,828.8957541282895,0.16615179146291734,0.2865929329831205,0.2074070670168795,0.3547195771027694,2094.569567525716,4761.432144986045
1.4985763571790969,829.7202344356915,829.060972865931,0.16650847158911256,0.2867219803695298,0.2072780196304702,0.3547195771027696,2094.343238699354,4763.986272558781
1.5006900050735668,829.8826771759009,829.2255188544207,0.16686185725615502,0.28684983581584467,0.20715016418415536,0.3547195771027698,2094.119000348516,4766.538783890865
1.5028036529680364,830.0442742370657,829.3893512964589,0.16721180717856973,0.2869764482047755,0.20702355179522444,0.35471957710276997,2093.89694212489,4769.0896775687725
1.5049173008625063,830.2049852803332,829.5524298684853,0.1675581859851732,0.2871017685588322,0.2068982314411678,0.35471957710277013,2093.677149927294,4771.638951981697
1.5070309487569762,830.3647713786117,829.7147149589365,0.16790086523377745,0.28722575040744486,0.20677424959255514,0.3547195771027703,2093.459705257801,4774.186605328615
1.5091445966514458,830.523595279596,829.8761679069519,0.16823972436851184,0.2873483501333249,0.20665164986667514,0.3547195771027705,2093.244684614278,4776.732635626665
1.5112582445459157,830.6814216552344,830.0367512376752,0.16857465160061005,0.2874695272911346,0.20653047270886538,0.3547195771027707,2093.032158931487,4779.2770407207345
1.5133718924403858,830.8382173330649,830.1964288902907,0.16890554469518226,0.28758924489214294,0.20641075510785709,0.35471957710277086,2092.8221930818486,4781.819818294204
1.5154855403348557,830.9939515052636,830.3551664350445,0.16923231164884425,0.287707469649392,0.20629253035060802,0.3547195771027711,2092.614845445452,4784.360965880708
1.5175991882293254,831.1485959118287,830.5129312757423,0.1695548712459957,0.28782417217896006,0.20617582782104,0.35471957710277124,2092.410167557077,4786.9004808768295
1.5197128361237953,831.3021249949999,830.6696928345578,0.1698731534848671,0.28793932715410536,0.20606067284589463,0.35471957710277147,2092.2082038358453,4789.43836055555
1.5218264840182651,831.4545160227927,830.8254227164284,0.17018709986805663,0.28805291341038325,0.20594708658961675,0.35471957710277163,2092.0089914008663,4791.97460208033
1.5239401319127348,831.6057491803502,830.9800948508325,0.170496663555964,0.2881649140011585,0.2058350859988415,0.35471957710277185,2091.812559973874,4794.509202519638
1.5260537798072047,831.755807628646,831.1336856093079,0.17080180938512637,0.2882753162042393,0.2057246837957607,0.354719577102772,2091.618931867592,4797.0421588617955
1.5281674277016746,831.9046775308784,831.2861738976594,0.17110251375679975,0.28838411148156584,0.20561588851843415,0.35471957710277224,2091.4281220564353,4799.573468029954
1.5302810755961442,832.0523480476475,831.437541222401,0.1713987644041258,0.2884912953949711,0.20550870460502893,0.3547195771027724,2091.2401383242504,4802.1031268970455
1.5323947234906141,832.1988113026573,831.5877717315408,0.17169056004866995,0.2885968674819155,0.2054031325180845,0.35471957710277263,2091.05498148226,4804.631132300583
1.534508371385084,832.3440623212489,831.7368522303454,0.17197790995908258,0.2887008310958102,0.20529916890418978,0.3547195771027728,2090.8726456491067,4807.157481057142
1.5366220192795537,832.4880989444898,831.8847721731895,0.1722608334259474,0.2888031932160164,0.20519680678398364,0.354719577102773,2090.6931185840895,4809.682169976419
1.5387356671740235,832.6309217218658,832.031523632989,0.17253935916766436,0.28890396423289266,0.20509603576710733,0.35471957710277324,2090.516382064153,4812.205195874751
1.5408493150684932,832.7725337857967,832.1771012500401,0.17281352468242328,0.28900315771333857,0.20499684228666146,0.3547195771027734,2090.3424122950873,4814.726555588001
1.542962962962963,832.9129407112699,832.3215021623266,0.17308337556102932,0.2891007901521733,0.20489920984782667,0.35471957710277363,2090.171180347574,4817.246245983741
1.545076610857433,833.0521503638607,832.4647259195176,0.1733489647746948,0.28919688071445837,0.2048031192855416,0.35471957710277385,2090.0026526091083,4819.764263972646
1.5471902587519029,833.1901727392769,832.6067743829707,0.173610351950841,0.28929145097348113,0.20470854902651886,0.354719577102774,2089.8367912435365,4822.280606519098
1.5493039066463725,833.3270197973847,832.7476516140728,0.17386760264869483,0.2893845246486649,0.20461547535133517,0.35471957710277424,2089.6735546507184,4824.795270650927
1.5514175545408424,833.4627052934256,832.8873637532183,0.17412078764505626,0.2894761273471583,0.20452387265284172,0.35471957710277446,2089.512897919741,4827.308253468299
1.5535312024353123,833.5972446088607,833.0259188916366,0.17436998223907624,0.2895662863123033,0.20443371368769667,0.3547195771027747,2089.3547732700677,4829.819552151743
1.555644850329782,833.7306545839689,833.1633269381584,0.17461526558335533,0.28965503018162564,0.20434496981837438,0.35471957710277485,2089.199130475979,4832.32916396932
1.5577584982242518,833.8629533540332,833.299599482856,0.17485672004719202,0.2897423887564566,0.2042576112435434,0.3547195771027751,2089.045917270626,4834.837086282955
1.5598721461187217,833.9941601906232,833.4347496593159,0.1750944306163681,0.2898283927847753,0.2041716072152247,0.3547195771027753,2088.8950797268876,4837.3433165539645
1.5619857940131914,834.1242953492244,833.5687920071255,0.1753284843326476,0.289913073758418,0.204086926241582,0.3547195771027755,2088.746562613035,4839.847852347791
1.5640994419076613,834.2533799241476,833.7017423359491,0.17555896977487126,0.28999646372533766,0.20400353627466236,0.35471957710277574,2088.6003097219964,4842.350691338011
1.5662130898021311,834.3814357114449,833.8336175923907,0.17578597658265116,0.2900785951172758,0.20392140488272423,0.35471957710277596,2088.456264173597,4844.851831309638
1.5683267376966008,834.5084850803051,833.9644357306462,0.17600959502271957,0.2901595005928669,0.20384049940713314,0.3547195771027762,2088.3143686897265,4847.351270161762
1.5704403855910705,834.6345508532247,834.0942155877764,0.1762299155973206,0.29023921289595395,0.20376078710404602,0.3547195771027764,2088.1745658428317,4849.849005909583
1.5725540334855401,834.7596561950651,834.2229767642613,0.17644702869339995,0.290317764728665,0.20368223527133503,0.35471957710277663,2088.0367982785224,4852.3450366858815
1.57466768138001,834.8838245109797,834.3507395103456,0.17666102427096358,0.29039518863866043,0.2036048113613396,0.35471957710277685,2087.9010089133194,4854.839360741965
1.57678132927448,835.0070793530722,834.4775246185548,0.1768719915886159,0.29047151691983264,0.20352848308016736,0.3547195771027771,2087.767141108812,4857.3319764481375
1.5788949771689496,835.129444335539,834.6033533226181,0.17708001896399386,0.2905467815256306,0.20345321847436937,0.3547195771027773,2087.635138823676,4859.822882293747
1.5810086250634194,835.2509430580004,834.7282472029533,0.17728519356677755,0.290621013994171,0.20337898600582902,0.3547195771027775,2087.5049467450126,4862.312076886837
1.5831222729578893,835.3715990366467,834.8522280987512,0.17748760124179266,0.290694245384236,0.203305754615764,0.35471957710277774,2087.3765104006006,4864.799558953453
1.585235920852359,835.4914356427992,834.9753180266318,0.17768732635974496,0.2907665062212692,0.20323349377873076,0.35471957710277796,2087.2497762536123,4867.2853273366445
1.5873495687468289,835.6104760484523,835.0975391057691,0.1778844516931446,0.2908378264524848,0.20316217354751523,0.3547195771027782,2087.1246917813414,4869.769380995187
1.5894632166412987,835.7287431783459,835.2189134893282,0.17807905831503115,0.2909082354102258,0.20309176458977415,0.3547195771027784,2087.001205539471,4872.251719002065
1.5915768645357684,835.8462596681268,835.3394633020172,0.17827122551826755,0.29097776178276513,0.20302223821723492,0.3547195771027787,2086.87926721328,4874.732340542756
1.5936905124302383,835.9630478281384,835.4592105835158,0.17846103075321354,0.2910464335917549,0.20295356640824513,0.3547195771027789,2086.7588276571964,4877.2112449133265
1.5958041603247082,836.079129612399,835.5781772375146,0.1786485495817418,0.29111427817559027,0.20288572182440975,0.3547195771027791,2086.639838923974,4879.688431518384
1.597917808219178,836.1945265923495,835.6963849860931,0.17883385564577065,0.2911813221780239,0.2028186778219761,0.35471957710277935,2086.522254284659,4882.163899868891
1.600031456113648,836.3092599349416,835.8138553291304,0.1790170206484904,0.291247591541374,0.20275240845862602,0.3547195771027796,2086.4060282405053,4884.63764957989
1.6021451040081178,836.4233503846859,835.9306095084542,0.1791981143467217,0.29131311150375927,0.20268688849624075,0.35471957710277985,2086.2911165278188,4887.10968036813
1.6042587519025877,836.5368182492797,836.0466684764208,0.17937720455293066,0.29137790659982826,0.20262209340017176,0.35471957710278007,2086.177476116685,4889.579992049636
1.6063723997970574,836.6496833884752,836.1620528686279,0.17955435714560286,0.2914420006645124,0.20255799933548757,0.35471957710278035,2086.06506520438,4892.048584537222
1.6084860476915273,836.7619652058407,836.2767829804545,0.17972963608669612,0.29150541683934084,0.20249458316065913,0.35471957710278057,2085.953843204302,4894.515457837979
1.6105996955859971,836.87368264313,836.3908787471436,0.1799031034451781,0.29156817758095593,0.20243182241904406,0.3547195771027808,2085.84377073103,4896.980612050729
1.6127133434804668,836.9848541769597,836.5043597271438,0.1800748194256225,0.2916303046714596,0.20236969532854035,0.35471957710278107,2085.7348095821817,4899.444047363486
1.6148269913749367,837.0954978175457,836.6172450884386,0.18024484240102975,0.29169181923028814,0.2023081807697119,0.3547195771027813,2085.6269227175867,4901.905764050899
1.6169406392694066,837.2056311092487,836.7295535976065,0.18041322894910128,0.2917527417273357,0.20224725827266432,0.35471957710278157,2085.520074236269,4904.36576247172
1.6190542871638762,837.3152711327147,836.8413036113649,0.18058003389129199,0.29181309199708416,0.20218690800291586,0.3547195771027818,2085.4142293516657,4906.824043066285
1.621167935058346,837.4244345083972,836.9525130703629,0.18074531033400715,0.29187288925350796,0.20212711074649206,0.35471957710278207,2085.309354365487,4909.280606354018
1.623281582952816,837.5331374012978,837.0631994950114,0.18090910971151533,0.2919321521055999,0.20206784789440013,0.3547195771027823,2085.2054166404846,4911.735452930969
1.6253952308472857,837.6413955267353,837.173379983137,0.1810714818300152,0.29199089857331484,0.2020091014266852,0.35471957710278257,2085.1023845724912,4914.188583467385
1.6275088787417555,837.74922415701,837.2830712092745,0.18123247491253827,0.29204914610381544,0.20195085389618458,0.3547195771027828,2085.0002275619267,4916.639998705325
1.6296225266362254,837.8566381288122,837.3922894254154,0.18139213564429524,0.29210691158787855,0.20189308841212145,0.35471957710278307,2084.898915985024,4919.089699456317
1.631736174530695,837.963651851264,837.5010504630496,0.18155050921820248,0.29216421137636683,0.20183578862363313,0.3547195771027833,2084.798421164941,4921.537686599066
1.633849822425165,838.0702793144833,837.6093697363514,0.18170763938036197,0.2922210612966834,0.20177893870331662,0.35471957710278357,2084.6987153429013,4923.983961077202
1.6359634703196348,838.1765340985534,837.7172622463557,0.18186356847517693,0.2922774766690946,0.20172252333090543,0.35471957710278385,2084.5997716495654,4926.428523897091
1.6380771182141045,838.2824293828342,837.8247425860128,0.18201833749005258,0.292333472322903,0.20166652767709697,0.35471957710278407,2084.501564076669,4928.87137612569
1.6401907661085744,838.3879779555258,837.9318249459919,0.18217198609947005,0.29238906261239345,0.20161093738760652,0.35471957710278434,2084.4040674490534,4931.312518888465
1.6423044140030443,838.4931922234085,838.0385231211279,0.18232455270828637,0.29244426143249885,0.20155573856750114,0.3547195771027846,2084.307257397191,4933.751953367354
1.644418061897514,838.5980842217047,838.1448505174121,0.18247607449419234,0.29249908223416154,0.2015009177658385,0.3547195771027849,2084.2111103302423,4936.189680798792
1.6465317097919838,838.7026656240134,838.2508201594434,0.18262658744926852,0.2925535380393684,0.2014464619606316,0.3547195771027851,2084.1156034096916,4938.625702471791
1.6486453576864537,838.806947752258,838.3564446982506,0.18277612642051586,0.2926076414558149,0.20139235854418508,0.3547195771027854,2084.020714523622,4941.0600197260665
1.6507590055809234,838.9109415866121,838.4617364194185,0.18292472514935584,0.2926614046911962,0.20133859530880374,0.3547195771027857,2083.9264222616557,4943.492633950239
1.6528726534753932,839.0146577753724,838.5667072514514,0.1830724163100636,0.2927148395671125,0.20128516043288752,0.35471957710278595,2083.8327058905656,4945.923546580065
1.6549863013698631,839.1181066447293,838.6713687743108,0.18321923154705644,0.29276795753255963,0.2012320424674404,0.35471957710278623,2083.739545330612,4948.35275909674
1.6570999492643328,839.2212982084401,838.775732228086,0.1833652015111353,0.29282076967704185,0.20117923032295817,0.3547195771027865,2083.6469211325484,4950.780273025245
1.6592135971588027,839.3242421773429,838.8798085217333,0.1835103558945248,0.2928732867432491,0.20112671325675094,0.3547195771027868,2083.5548144553854,4953.206089932755
1.6613272450532726,839.4269479687246,838.9836082418587,0.18365472346483347,0.2929255191393437,0.20107448086065627,0.35471957710278706,2083.4632070448433,4955.630211427087
1.6634408929477422,839.5294247155127,839.0871416615006,0.18379833209789548,0.292977476950843,0.201022523049157,0.35471957710278734,2083.37208121251,4958.052639155202
1.665554540842212,839.6316812752751,839.1904187488766,0.18394120880947823,0.2930291699520907,0.2009708300479093,0.3547195771027876,2083.2814198157225,4960.473374801765
1.667668188736682,839.7337262390247,839.2934491760743,0.1840833797859241,0.2930806076173434,0.2009193923826566,0.3547195771027879,2083.191206238126,4962.892420087743
1.6697818366311517,839.8355679398179,839.3962423276547,0.18422487041370816,0.2931317991314646,0.20086820086853538,0.3547195771027882,2083.1014243709133,4965.309776769044
1.6718954845256215,839.9372144611373,839.4988073091511,0.18436570530794208,0.29318275340023736,0.20081724659976266,0.35471957710278845,2083.01205859474,4967.725446635226
1.6740091324200914,840.0386736450582,839.6011529554434,0.18450590833985367,0.29323347906030645,0.2007665209396936,0.35471957710278873,2082.923093762291,4970.13943150822
1.676122780314561,840.1399531001955,839.7032878389947,0.18464550266327273,0.29328398448876103,0.200716015511239,0.354719577102789,2082.834515181468,4972.551733241115
1.678236428209031,840.2410602094217,839.805220277932,0.18478451074010954,0.2933342778123528,0.20066572218764722,0.3547195771027893,2082.746308599226,4974.962353716982
1.6803500761035008,840.3420021373664,839.9069583439659,0.18492295436491257,0.293384366916381,0.20061563308361902,0.35471957710278956,2082.6584601859904,4977.371294847737
1.6824637239979705,840.4427858376962,840.0085098701418,0.18506085468852296,0.2934342594532505,0.20056574054674944,0.35471957710278984,2082.5709565206453,4979.778558573036
1.6845773718924404,840.543418060159,840.1098824584043,0.18519823224076978,0.2934839628506834,0.2005160371493166,0.3547195771027902,2082.483784576136,4982.184146859223
1.6866910197869103,840.6439053574261,840.2110834869866,0.18533510695238828,0.29353348431964843,0.20046651568035156,0.35471957710279045,2082.3969317055544,4984.5880616983
1.68880466768138,840.744254091706,840.3121201176062,0.18547149817605313,0.2935828308619713,0.20041716913802865,0.35471957710279073,2082.3103856288008,4986.990305106944
1.6909183155758498,840.8444704411414,840.4129993024695,0.1856074247065913,0.29363200927764777,0.2003679907223522,0.354719577102791,2082.224134419752,4989.390879125551
1.6930319634703197,840.9445604060054,840.5137277910866,0.18574290480046718,0.293681026171893,0.20031897382810696,0.35471957710279134,2082.1381664938976,4991.789785817315
1.6951456113647894,841.0445298146893,840.6143121368931,0.18587795619450379,0.29372988796191535,0.2002701120380847,0.3547195771027916,2082.052470596465,4994.1870272673395
1.6972592592592592,841.1443843294815,840.7147587036768,0.1860125961238523,0.29377860088341734,0.20022139911658268,0.3547195771027919,2081.9670357910104,4996.582605581787
1.6993729071537291,841.2441294521545,840.8150736718127,0.18614684133929515,0.29382717099685646,0.2001728290031436,0.3547195771027922,2081.8818514484456,4998.976522887041
1.7014865550481988,841.3437705293637,840.9152630443111,0.1862807081238941,0.2938756041934679,0.20012439580653207,0.3547195771027925,2081.7969072364695,5001.368781328919
1.7036002029426687,841.4433127578509,841.0153326526738,0.18641421230896565,0.2939239062010451,0.2000760937989549,0.35471957710279284,2081.7121931094334,5003.75938307189
1.7057138508371386,841.5427611894679,841.1152881625649,0.186547369289444,0.2939720825894974,0.2000279174105026,0.3547195771027931,2081.6276992985922,5006.1483302983415
1.7078274987316082,841.6421207360258,841.2151350793014,0.18668019403867078,0.29402013877620153,0.19997986122379843,0.35471957710279345,2081.543416302719,5008.535625207859
1.709941146626078,841.7413961739729,841.3148787531637,0.18681270112260887,0.29406808003114404,0.19993191996885595,0.3547195771027937,2081.4593348790854,5010.92127001653
1.712054794520548,841.8405921489002,841.4145243845302,0.18694490471349096,0.29411591148185917,0.19988408851814082,0.35471957710279406,2081.3754460348023,5013.305266956276
1.714168442415018,841.9397131798904,841.5140770288385,0.18707681860295802,0.29416363811818264,0.1998363618818174,0.35471957710279434,2081.2917410184828,5015.687618274211
1.7162820903094878,842.0387636637128,841.6135416013844,0.18720845621470952,0.29421126479682835,0.1997887352031717,0.35471957710279467,2081.2082113122146,5018.068326232015
1.7183957382039576,842.1377478788589,841.7129228819509,0.18733983061663123,0.2942587962457763,0.19974120375422375,0.35471957710279495,2081.1248486238637,5020.447393105336
1.7205093860984275,842.2366699894399,841.8122255192817,0.18747095453248797,0.294306237068503,0.19969376293149702,0.3547195771027953,2081.0416448796564,5022.824821183202
1.7226230339928972,842.3355340489378,841.911454035399,0.18760184035316305,0.29435359174804804,0.19964640825195196,0.3547195771027956,2080.958592217046,5025.2006127674695
1.724736681887367,842.4343440038247,842.0106128297718,0.1877325001474746,0.2944008646509273,0.19959913534907267,0.3547195771027959,2080.8756829778495,5027.574770172273
1.726850329781837,842.5331036970504,842.1097061833391,0.18786294567259162,0.29444806003090157,0.1995519399690984,0.3547195771027962,2080.7929097016404,5029.947295723511
1.7289639776763066,842.6318168713963,842.2087382623869,0.18799318838402218,0.29449518203259023,0.19950481796740976,0.35471957710279656,2080.7102651194073,5032.3181917583315
1.7310776255707765,842.7304871727173,842.3077131222939,0.18812323944526887,0.2945422346949647,0.19945776530503528,0.3547195771027969,2080.6277421474297,5034.687460624653
1.7331912734652464,842.8291181530599,842.406634711142,0.18825310973710302,0.2945892219547039,0.19941077804529614,0.35471957710279717,2080.545333881391,5037.055104680684
1.735304921359716,842.9277132736667,842.5055068731974,0.18838280986648528,0.29463614764942136,0.19936385235057863,0.3547195771027975,2080.463033590721,5039.421126294478
1.737418569254186,843.0262759078726,842.6043333522682,0.1885123501751626,0.29468301552077625,0.19931698447922375,0.35471957710279783,2080.3808347131376,5041.785527843483
1.7395322171486558,843.1248093438994,842.7031177949447,0.1886417407479617,0.2947298292174735,0.1992701707825265,0.35471957710279817,2080.298730849386,5044.1483117141215
1.7416458650431255,843.2233167875456,842.8018637537199,0.18877099142075712,0.29477659229814673,0.19922340770185332,0.3547195771027985,2080.216715758183,5046.50948030138
1.7437595129375953,843.3218013647785,842.9005746900021,0.18890011178815766,0.29482330823413927,0.19917669176586075,0.35471957710279883,2080.1347833513373,5048.869036008413
1.7458731608320652,843.4202661242314,842.9992539770141,0.18902911121088906,0.2948699804121753,0.1991300195878247,0.35471957710279917,2080.0529276890675,5051.226981246151
1.747986808726535,843.5187140396158,843.0979049025946,0.18915799882294795,0.29491661213694803,0.19908338786305196,0.3547195771027995,2079.9711429754616,5053.5833184329385
1.7501004566210048,843.6171480120488,843.1965306718993,0.18928678353849412,0.2949632066336134,0.1990367933663866,0.35471957710279983,2079.8894235541024,5055.938049994171
1.7522141045154747,843.7155708722796,843.2951344099956,0.18941547405842107,0.2950097670501673,0.19899023294983276,0.35471957710280017,2079.8077639039006,5058.291178361948
1.7543277524099443,843.8139853828667,843.3937191643813,0.18954407887682756,0.29505629645978687,0.19894370354021318,0.3547195771028005,2079.726158634987,5060.642705974735
1.7564414003044142,843.912394240244,843.4922879073953,0.18967260628710847,0.2951027978630344,0.19889720213696557,0.35471957710280083,2079.644602484846,5062.992635277044
1.758555048198884,844.0108000767393,843.5908435385558,0.18980106438794409,0.29514927419002435,0.19885072580997568,0.35471957710280116,2079.563090314519,5065.340968719115
1.7606686960933537,844.1092054625071,843.6893888868079,0.18992946108901557,0.2951957283024905,0.19880427169750944,0.3547195771028015,2079.481617104973,5067.6877087566145
1.7627823439878236,844.2076129074009,843.787926712696,0.19005780411655612,0.2952421629957956,0.19875783700420444,0.35471957710280183,2079.4001779535834,5070.032857850338
1.7648959918822935,844.3060248627779,843.8864597104572,0.1901861010186998,0.29528858100086514,0.19871141899913483,0.3547195771028022,2079.318768070734,5072.37641846593
1.7670096397767632,844.4044437232333,843.9849905100377,0.19031435917060904,0.2953349849860438,0.19866501501395623,0.35471957710280255,2079.2373827765696,5074.718393073607
1.769123287671233,844.5028718282848,844.0835216790432,0.190442585779478,0.29538137755890476,0.19861862244109527,0.3547195771028029,2079.1560174978163,5077.058784147892
1.771236935565703,844.6013114639948,844.1820557246194,0.19057078788934914,0.2954277612679928,0.19857223873200722,0.3547195771028032,2079.074667764727,5079.397594167348
1.7733505834601726,844.6997648645377,844.2805950952666,0.19069897238576328,0.2954741386045066,0.19852586139549344,0.3547195771028036,2078.993329208131,5081.734825614342
1.7754642313546425,844.79823421371,844.3791421825899,0.19082714600024234,0.2955205120039205,0.19847948799607953,0.35471957710280394,2078.911997556589,5084.070480974796
1.7775778792491124,844.8967216463946,844.4776993229917,0.19095531531465051,0.2955668838475625,0.1984331161524375,0.3547195771028043,2078.8306686336264,5086.404562737951
1.779691527143582,844.9952292499772,844.5762687993056,0.1910834867654105,0.2956132564641397,0.19838674353586028,0.35471957710280466,2078.749338355057,5088.737073396143
1.781805175038052,845.0937590657157,844.674852842377,0.19121166664759098,0.29565963213121704,0.19834036786878292,0.354719577102805,2078.6680027263897,5091.068015444586
1.7839188229325218,845.1923130900718,844.773453632592,0.19133986111889412,0.2957060130766601,0.19829398692333985,0.3547195771028054,2078.5866578402997,5093.397391381156
1.7860324708269915,845.2908932760006,844.8720733013583,0.1914680762035219,0.2957524014800339,0.1982475985199661,0.3547195771028057,2078.5052998741708,5095.725203706182
1.7881461187214613,845.3895015342243,844.9707139325496,0.19159631779603975,0.29579879947400073,0.19820120052599927,0.3547195771028061,2078.42392508765,5098.051454922256
1.7902597666159312,845.4881397344753,845.0693775639111,0.1917245916651608,0.29584520914568935,0.19815479085431065,0.35471957710280644,2078.342529820241,5100.376147534033
1.7923734145104009,845.5868097067504,845.1680661884473,0.19185290345764558,0.2958916325381059,0.19810836746189409,0.3547195771028068,2078.261110488833,5102.699284048048
1.7944870624048708,845.6855132425803,845.2667817558021,0.191981258702322,0.2959380716515883,0.1980619283484117,0.3547195771028072,2078.1796635851465,5105.020866972532
1.7966007102993407,845.7842520963782,845.3655261736632,0.1921096628145081,0.29598452844540657,0.19801547155459343,0.35471957710280755,2078.0981856729313,5107.340898817242
1.7987143581938103,845.8830279869193,845.4643013092326,0.1922381211010701,0.2960310048395925,0.1979689951604075,0.35471957710280794,2078.0166733847523,5109.6593820932985
1.8008280060882802,845.9818425990723,845.5631089908337,0.19236663876664079,0.2960775027171898,0.19792249728281022,0.3547195771028083,2077.935123418048,5111.976319313016
1.80294165398275,846.080697585975,845.661951009776,0.1924952209218489,0.2961240239272313,0.19787597607276866,0.35471957710280866,2077.853532529905,5114.2917129897605
1.8050553018772197,846.1795945719301,845.7608291226533,0.19262387259477526,0.29617057028888405,0.19782942971111597,0.35471957710280905,2077.77189752979,5116.605565637815
1.8071689497716896,846.2785351565594,845.8597450544071,0.19275259874801204,0.296217143597621,0.19778285640237903,0.35471957710280944,2077.6902152687258,5118.917879772248
1.8092825976661595,846.3775209210023,845.9587005026475,0.1928814043047912,0.29626374563467456,0.19773625436532544,0.3547195771028098,2077.608482622711,5121.228657908822
1.8113962455606292,846.4765534375287,846.0576971440858,0.19301029419022497,0.2963103781819576,0.19768962181804242,0.3547195771028102,2077.526696466551,5123.537902563927
1.813509893455099,846.5756342847678,846.15673664445,0.19313927339737788,0.296357043045968,0.19764295695403203,0.3547195771028106,2077.4448536319323,5125.845616254568
1.815623541349569,846.6747650722255,846.2558206741732,0.1932683470943646,0.2964037420965372,0.19759625790346283,0.35471957710281093,2077.3629508394647,5128.151801498441
1.8177371892440386,846.7739474800414,846.3549509335663,0.19339752079873035,0.29645047732992097,0.19754952267007903,0.3547195771028113,2077.2809845880283,5130.456460814144
1.8198508371385085,846.8731833237806,846.4541291935882,0.19352680066227193,0.29649725097184837,0.19750274902815165,0.3547195771028117,2077.1989509740456,5132.759596721615
1.8219644850329784,846.9724746601552,846.5533573621457,0.193656193936362,0.2965440656458765,0.19745593435412348,0.3547195771028121,2077.1168453962096,5135.061211742923
1.824078132927448,847.0718239592446,846.6526375919391,0.19378570973027268,0.2965909246477533,0.19740907535224675,0.3547195771028125,2077.034662074296,5137.3613084036715
1.826191780821918,847.1712343837228,846.7519724553163,0.19391536024052097,0.29663783239019614,0.19736216760980385,0.35471957710281293,2076.9523932690936,5139.659889235337
1.8283054287163878,847.2707102373172,846.8513652255155,0.19404516272384695,0.2966847951167187,0.19731520488328133,0.3547195771028133,2076.8700280304593,5141.956956779174
1.8304190766108575,847.3702576730861,846.950820322357,0.1941751426085787,0.29673182202732684,0.19726817797267313,0.3547195771028137,2076.787550223031,5144.252513592579
1.8325327245053273,847.4698857800678,847.0503440004218,0.19430533825502766,0.2967789270008369,0.19722107299916306,0.3547195771028141,2076.7049355055456,5146.546562259286
1.8346463723997972,847.5696081676451,847.1499453644817,0.19443580786098974,0.29682613109329575,0.19717386890670427,0.3547195771028145,2076.622146949008,5148.839105405291
1.8367600202942669,847.6694450697115,847.2496377503933,0.19456663853919345,0.2968734658222147,0.19712653417778533,0.3547195771028149,2076.5391292766585,5151.130145722761
1.8388736681887368,847.769425649451,847.3494403247322,0.19469795600945952,0.29692097667320705,0.19707902332679297,0.3547195771028153,2076.4558027138833,5153.4196860036345
1.8409873160832066,847.8695894003043,847.4493793093197,0.19482992976628105,0.29696872496962595,0.19703127503037401,0.3547195771028157,2076.3720597091615,5155.707729181722
1.8431009639776763,847.9699842182384,847.549487450022,0.19496276266020676,0.2970167841030939,0.1969832158969061,0.3547195771028161,2076.2877715451277,5157.994278374663
1.8452146118721462,848.0706565465521,847.6497990302486,0.19509664415160968,0.2970652226206483,0.19693477737935172,0.35471957710281654,2076.2028180010543,5160.279336902615
1.847328259766616,848.1716178465864,847.750331554684,0.1952315951702488,0.2971140480947062,0.1968859519052938,0.35471957710281693,2076.117185796113,5162.562908225141
1.8494419076610857,848.2726795820195,847.8509954631835,0.19536670512841983,0.29716293107331704,0.19683706892668293,0.3547195771028174,2076.031452737226,5164.844995537255
1.8515555555555556,848.3725602280078,847.9511046259041,0.19549600600869368,0.2972097123191286,0.19679028768087137,0.35471957710281776,2075.949405787226,5167.125599443926
1.8526123795027907,848.4208645446437,848.0002905910757,0.19555298423140838,0.2972303271226557,0.19676967287734434,0.354719577102818,2075.91325066299,5168.265342533602
1.8536692034500255,848.4674277650909,848.0485012714535,0.19560195524402663,0.29724804490596907,0.1967519550940309,0.3547195771028182,2075.882176456726,5169.404709339706
1.8557828513444952,848.5565092050589,848.1423873825815,0.19568204362016656,0.2972770209964868,0.1967229790035132,0.3547195771028186,2075.8313569497063,5171.68230157226
1.857896499238965,848.643294184687,848.2343219454465,0.1957533969252313,0.29730283672563423,0.19669716327436576,0.35471957710281904,2075.7860802196437,5173.958361029917
1.860010147133435,848.7293412917918,848.3251113623895,0.19582335252889085,0.2973281467643883,0.1966718532356117,0.35471957710281943,2075.7416903910243,5176.2328842148
1.8621237950279046,848.8149949039106,848.415004540121,0.195893332275457,0.297353465538081,0.19664653446191904,0.35471957710281987,2075.697285242696,5178.50587117275
1.8642374429223745,848.9003454423315,848.5041241267803,0.19596354807579092,0.2973788697163688,0.19662113028363118,0.3547195771028203,2075.652730308136,5180.777322728807
1.8663510908168444,848.9854384789334,848.5925633536754,0.19603401822966918,0.29740436592013747,0.19659563407986252,0.3547195771028207,2075.6080139753512,5183.047239971729
1.868464738711314,849.0703097930464,848.6804031561928,0.19610473530469996,0.29742995146033685,0.19657004853966314,0.35471957710282115,2075.563140960512,5185.315624158367
1.870578386605784,849.1549911102084,848.7677157054788,0.19617569156176168,0.29745562353694155,0.19654437646305842,0.3547195771028216,2075.518116174424,5187.5824766870155
