z,T,t,fs,x,y,w,rhob,p
0.0,556.2443827633253,298.0,0.0,0.2264791840954991,0.2675208159045009,0.35471936710812957,2200.0,2040.0
0.002030214424951267,574.9442593639545,341.0680472531181,4.179446437142591e-07,0.22647933530847672,0.2675206646915233,0.35471936710812957,2199.9997347962117,2044.204308932028
0.004060428849902534,591.7972147298049,379.5920597277843,1.6422157836994007e-06,0.22647977825154886,0.2675202217484512,0.35471936710812957,2199.9989579437047,2048.61741927758
0.008120857699805068,620.8037245497881,445.2860558415438,9.05699418180902e-06,0.22648246092911573,0.26751753907088427,0.35471936710812957,2199.994252949035,2057.9932724195187
0.012181286549707602,644.6573372831866,498.7581348227095,2.7208054381657154e-05,0.22648902800899295,0.26751097199100704,0.35471936710812957,2199.9827353234355,2067.9898326222083
0.016241715399610137,664.3954716975991,542.6438322552649,5.963838543675205e-05,0.2265007613497532,0.26749923865024683,0.35471936710812957,2199.96215688851,2078.492073637797
0.024362573099415207,694.5123357720547,608.9902101290537,0.00017283585671507806,0.22654171635886025,0.2674582836411397,0.35471936710812957,2199.890328241663,2100.6458452609163
0.03045321637426901,711.022056254725,645.0406252286082,0.0002992079115883241,0.22658743795139905,0.267412562048601,0.35471936710812957,2199.8101397569008,2117.9836880909033
0.03654385964912281,723.7540855345895,672.6758531240146,0.0004573112296707257,0.22664463996093864,0.2673553600390614,0.35471936710812957,2199.709816425721,2135.7355028971047
0.04263450292397661,733.6197483670566,693.9765144407215,0.0006428105417629504,0.2267117538808018,0.2672882461191982,0.35471936710812957,2199.5921091622286,2153.7639848347976
0.048725146198830414,741.2946838634525,710.4645794095442,0.0008515158459244803,0.22678726376221614,0.26721273623778385,0.35471936710812957,2199.4596767022244,2171.9646713249845
0.05481578947368422,747.2861639088304,723.2711047901619,0.0010797150555621833,0.22686982656687416,0.26713017343312584,0.35471936710812957,2199.3148745237436,2190.2582009311595
0.06090643274853802,751.978716310746,733.2467517205866,0.0013242598583401435,0.2269583032308115,0.2670416967691885,0.35471936710812957,2199.1597003658894,2208.58442449931
0.06699707602339182,755.6659608950189,741.03714726535,0.0015825443317918958,0.2270517509275045,0.26694824907249554,0.3547193671081296,2198.9958077981496,2226.897913839337
0.07308771929824562,758.5733553789698,747.1357223708995,0.0018524427228508156,0.22714940055641372,0.26685059944358624,0.3547193671081296,2198.824545701949,2245.1645283063344
0.07917836257309942,760.8747585402147,751.9216015110163,0.0021322368332778808,0.22725063047092717,0.26674936952907286,0.3547193671081296,2198.6470043477066,2263.358784935582
0.08526900584795322,762.7046767215659,755.6872713458936,0.002420546228215948,0.22735494122771344,0.26664505877228656,0.3547193671081296,2198.4640596805016,2281.461840855453
0.09745029239766083,765.3439295656028,761.0123031291441,0.003018517831757309,0.2275712882202057,0.2664287117797943,0.3547193671081296,2198.0846210707,2317.343261046918
0.10963157894736844,767.0772441017616,764.3800336442885,0.0036399422731488297,0.2277961204834102,0.2662038795165898,0.3547193671081297,2197.690300630161,2352.7402237156643
0.12181286549707604,768.2598172377536,766.5579247381107,0.004280762657344432,0.22802797022682172,0.26597202977317835,0.3547193671081297,2197.283672632658,2387.6219474702607
0.13399415204678364,769.1076876252708,768.0121515634276,0.004938420934542041,0.2282659119443158,0.2657340880556842,0.35471936710812974,2196.8663602704214,2421.9794632366384
0.14617543859649124,769.7524465787783,769.026446435747,0.005611306423330534,0.22850936288902443,0.2654906371109756,0.35471936710812974,2196.4393855898356,2455.8161935486473
0.15835672514619883,770.2742920709859,769.7736517493506,0.006298404769748877,0.22875795606621482,0.2652420439337852,0.3547193671081298,2196.0033922419616,2489.1423863157625
0.17053801169590643,770.7221008223302,770.3590797014302,0.006999076235060086,0.22901146001748518,0.2649885399825148,0.3547193671081298,2195.5587861684444,2521.971841083603
0.18271929824561406,771.1256512080842,770.8468830981188,0.007712916340091738,0.2292697284016849,0.2647302715983151,0.35471936710812985,2195.1058240286543,2554.3199985696215
0.19490058479532166,771.5030765999368,771.2761239849902,0.008439668552268026,0.2295326684049564,0.2644673315950436,0.35471936710812985,2194.644668603505,2586.2028398635152
0.21926315789473685,772.2193366976481,772.0446112191986,0.009931316403803375,0.23007234875871563,0.26392765124128437,0.35471936710812996,2193.6981541139407,2648.635760662294
0.25580701754385965,773.2643275909476,773.1167974288203,0.01226308266536345,0.2309159851703709,0.2630840148296291,0.35471936710813007,2192.218548488141,2739.1761696313997
0.2923508771929825,774.3125769139665,774.1752212551952,0.014707397812241266,0.23180034193179305,0.262199658068207,0.3547193671081302,2190.667525771084,2826.30671031312
0.3288947368421053,775.3756705213693,775.2446536981647,0.017264244598597003,0.23272541280341216,0.2612745871965878,0.35471936710813035,2189.045096905993,2910.340876696062
0.3654385964912281,776.4563665886208,776.3308096800182,0.019933950055630062,0.23369131610559002,0.26030868389441003,0.35471936710813046,2187.3510543775574,2991.5475363466003
0.3898011695906433,777.1870280223623,777.0649785680447,0.021776716637491072,0.23435803172467584,0.25964196827532415,0.35471936710813057,2186.181740005656,3044.2304405305713
0.41416374269005846,777.9259910245693,777.8074114529644,0.023670091381181032,0.2350430574500316,0.2589569425499684,0.35471936710813073,2184.9803125861526,3095.8216381164534
0.4385263157894737,778.673350592665,778.5582233579474,0.02561431469941321,0.23574648026332526,0.25825351973667476,0.35471936710813085,2183.746619566878,3146.377069144221
0.4628888888888889,779.4291964877636,779.3175128012572,0.027609657055529507,0.23646839801858577,0.2575316019814142,0.35471936710813096,2182.48048932725,3195.9480734667745
0.4872514619883041,780.1936192502275,780.0853749178284,0.029656417157784633,0.23720891878889244,0.25679108121110755,0.3547193671081311,2181.181732324079,3244.581909353034
0.5116140350877193,780.9667123183467,780.8619061514536,0.0317549204194221,0.23796816030922827,0.25603183969077176,0.3547193671081313,2179.8501420687157,3292.322199355561
0.5359766081871346,781.7485727499358,781.6472059108377,0.033905517615558656,0.23874624949053863,0.25525375050946136,0.35471936710813146,2178.485495979316,3339.2093153905084
0.5603391812865497,782.5393014503373,782.4413771404589,0.03610858369746404,0.2395433219907362,0.25445667800926386,0.3547193671081316,2177.087556133229,3385.2807128189265
0.584701754385965,783.3390032318491,783.2445265090511,0.03836451673794271,0.24035952183313827,0.25364047816686175,0.3547193671081318,2175.6560699362008,3430.571221541292
0.6090643274853802,784.1477868209906,784.0567644677391,0.04067373698812483,0.24119500106521263,0.25280499893478736,0.35471936710813196,2174.1907707208784,3475.1133006821206
0.6334269005847953,784.9657648554903,784.8782052678374,0.043036686029846075,0.24204991945190724,0.25195008054809276,0.3547193671081322,2172.6913782846614,3518.937262288066
0.6577894736842106,785.7930538869996,785.708966970556,0.045453826010411896,0.24292444419878667,0.2510755558012134,0.3547193671081324,2171.157599375279,3562.0714685343546
0.6821520467836258,786.6297743977801,786.5491714608039,0.04792563894849772,0.24381874970090608,0.25018125029909394,0.3547193671081326,2169.5891281312233,3604.5425061838614
0.7065146198830411,787.4760508394972,787.3989444711074,0.05045262610149409,0.24473301731391553,0.24926698268608447,0.35471936710813284,2167.9856464831973,3646.3753414336093
0.7308771929824562,788.3320117071047,788.2584156212225,0.0530353073858981,0.24566743514435702,0.248332564855643,0.3547193671081331,2166.346824521903,3687.5934577860303
0.7552397660818714,789.1977896716841,789.1277184820217,0.055674220843467945,0.24662219785651804,0.24737780214348196,0.3547193671081334,2164.6723208367835,3728.2189791747073
0.7796023391812866,790.0735218173661,790.0069906791273,0.05836992214687513,0.24759750649357629,0.2464024935064237,0.3547193671081337,2162.9617828297155,3768.272780239289
0.8039649122807018,790.9593500684573,790.8963740651151,0.06112298413960547,0.2485935683111348,0.2454064316888652,0.35471936710813395,2161.214847006957,3807.774585369082
0.8283274853801169,791.8554219724487,791.7960150144356,0.06393399640602605,0.24961059662167182,0.24438940337832818,0.3547193671081343,2159.431139251959,3846.74305791037
0.8526900584795323,792.761892160487,792.7060649435327,0.06680356486911382,0.2506488106489982,0.2433511893510018,0.3547193671081346,2157.610275080625,3885.19588075398
0.8770526315789474,793.6789251155587,793.6266812517247,0.06973231141582725,0.2517084353927165,0.2422915646072835,0.35471936710813495,2155.7518598790252,3923.1498293873974
0.9014152046783627,794.6067004958522,794.5580290596258,0.07272087355445922,0.25278970150425073,0.24121029849574926,0.35471936710813534,2153.855489120829,3960.6208384192287
0.9257777777777778,795.5454235066483,795.5002844788605,0.0757699041164506,0.253892845178962,0.240107154821038,0.35471936710813573,2151.9207485565075,3997.6240625880496
0.9501403508771931,796.4953453495551,796.4536408600563,0.0788800710309591,0.2550181080745872,0.23898189192541275,0.3547193671081361,2149.9472143563835,4034.1739334094527
0.9745029239766083,797.4568039673159,797.4183209177012,0.08205205723199997,0.2561657372776426,0.23783426272235744,0.35471936710813656,2147.9344531695574,4070.284213013761
0.9988654970760233,798.4303059311815,798.394600665076,0.08528656082229338,0.2573359853627036,0.23666401463729644,0.35471936710813706,2145.8820220199336,4105.968047629096
1.0232280701754386,799.4166918782208,799.3828577036167,0.08858429575292731,0.25852911063830825,0.23547088936169178,0.3547193671081375,2143.7894678749494,4141.238025067896
1.0475906432748538,800.4174702614467,800.3836717341419,0.09194599357284797,0.2597453777799251,0.23425462222007487,0.35471936710813806,2141.6563265354466,4176.106244441079
1.071953216374269,801.4354805641286,801.3980435964987,0.09537240748539631,0.2609850592976143,0.23301494070238576,0.3547193671081386,2139.482120061624,4210.584413820135
1.0963157894736844,802.4761546327387,802.427901873625,0.098864321647942,0.26224843890064803,0.23175156109935194,0.35471936710813917,2137.2663508720243,4244.684004740603
1.1206783625730996,803.5496698898859,803.4773307864183,0.10242257306224495,0.26353581941747584,0.23046418058252416,0.3547193671081398,2135.00848785316,4278.416510092485
1.1450409356725146,804.6737401182078,804.5554340950529,0.10604810397175854,0.2648475417531442,0.2291524582468558,0.35471936710814045,2132.7079331111777,4311.7938547839185
1.16940350877193,805.8746912091154,805.6814854087096,0.10974207873296059,0.2661840271735137,0.22781597282648633,0.3547193671081411,2130.363947811991,4344.82892859407
1.1937660818713451,807.1816688823645,806.8883520002618,0.11350608470751576,0.2675458499883343,0.2264541500116657,0.35471936710814184,2127.9755247065937,4377.535959493012
1.2181286549707602,808.6127002158113,808.2128053070337,0.11734231197595678,0.26893380257191574,0.22506619742808426,0.3547193671081426,2125.5412740950283,4409.93020290025
1.2424912280701754,810.1643131024708,809.6731455099591,0.12125347083530466,0.27034886551364684,0.22365113448635318,0.35471936710814345,2123.0594761776774,4442.026790766652
1.2668538011695907,811.8162885821807,811.2592405071913,0.12524240268380007,0.2717920668355276,0.2222079331644724,0.35471936710814433,2120.528327965585,4473.839459018928
1.291216374269006,813.5446438043001,812.94488880413,0.12931167242462482,0.27326433452324517,0.2207356654767548,0.35471936710814533,2117.946201917757,4505.3799769084
1.3155789473684212,815.3303691568434,814.7040078861005,0.13346334426597808,0.2747664154103167,0.2192335845896833,0.3547193671081464,2115.3117882056254,4536.658321400578
1.3399415204678364,817.1613146074932,816.5179083450585,0.13769882510856277,0.2762988185154547,0.21770118148454534,0.35471936710814755,2112.624194090398,4567.683154794594
1.3643040935672515,819.0305833229485,818.3753164821993,0.14201845642568262,0.27786166738419515,0.21613833261580487,0.3547193671081488,2109.883202892629,4598.462263837514
1.3886666666666667,820.9341687959316,820.2698188843644,0.14642029005086404,0.27945425716708544,0.21454574283291453,0.3547193671081501,2107.0900508074387,4629.002846073047
1.4130292397660817,822.8685739198324,822.1969774891729,0.15089678519923813,0.2810738595972351,0.21292614040276492,0.3547193671081516,2104.2495227860036,4659.311639505204
1.4373918128654972,824.8277413851204,824.151100830715,0.15542647428861095,0.28271270767230444,0.21128729232769558,0.3547193671081532,2101.375240929264,4689.394890984457
1.4617543859649125,826.7976257705869,826.1202708116834,0.1599550322058812,0.2843511464876681,0.20964885351233192,0.35471936710815494,2098.5016768497026,4719.258089021459
1.4861169590643275,828.7472249143163,828.0781752306676,0.16436313150082774,0.28594600319895647,0.20805399680104353,0.3547193671081568,2095.7045489285174,4748.905293249971
1.5104795321637428,830.6228823326802,829.9771645333235,0.1684516050395702,0.28742521884858174,0.20657478115141822,0.3547193671081589,2093.110237247891,4778.3380117854995
1.534842105263158,832.3663940257089,831.7597762063128,0.1720228294665553,0.28871729302019145,0.20528270697980855,0.3547193671081611,2090.8441422964934,4807.554399490197
1.5592046783625733,833.9523642630887,833.3917120084603,0.17501971291591592,0.28980156979400107,0.20419843020599893,0.3547193671081635,2088.942491310012,4836.550212715251
1.5835672514619883,835.3964197484978,834.8777471790966,0.17752981113279623,0.29070972696545305,0.20329027303454694,0.35471936710816604,2087.3497264157636,4865.321159660637
1.6079298245614035,836.731996379655,836.2461819363951,0.1796836353121136,0.2914889836739508,0.20251101632604915,0.35471936710816876,2085.9830326672363,4893.864571221173
1.6322923976608188,837.9912713445036,837.5291221601756,0.1815919347491149,0.2921794091749665,0.20182059082503345,0.35471936710817165,2084.7721348901973,4922.179718431053
1.6566549707602338,839.1991180185595,838.7533083117308,0.1833345065125559,0.2928098741635845,0.2011901258364155,0.3547193671081747,2083.666398424647,4950.267453467271
1.6810175438596493,840.3733704296565,839.9385711093528,0.18496653568025678,0.2934003446809113,0.20059965531908866,0.3547193671081779,2082.6308059736334,4978.12974509042
1.7053801169590646,841.5265918790336,841.099039048188,0.18652635170688187,0.2939646883791756,0.20003531162082444,0.35471936710818136,2081.6410358554817,5005.769304401015
1.7297426900584796,842.6677028788065,842.2447372047627,0.18804111642086543,0.29451273244725634,0.19948726755274362,0.3547193671081849,2080.6798527259716,5033.189321881158
1.7541052631578948,843.8031571372466,843.3828727315941,0.1895305457824434,0.29505161014813125,0.1989483898518688,0.35471936710818874,2079.7347459633634,5060.393290704136
1.7784678362573099,844.9377286129966,844.5187326470328,0.1910092896064335,0.2955866218060255,0.1984133781939745,0.35471936710819274,2078.796419632306,5087.384888938284
1.8028304093567253,846.0750280890288,845.6562817742055,0.19248846732311925,0.2961217904469255,0.19787820955307447,0.3547193671081969,2077.8578179777383,5114.167900390965
1.8271929824561404,847.2178884040742,846.798584319982,0.1939768785199885,0.29666029977433295,0.19733970022566705,0.35471936710820134,2076.913357284274,5140.746160891147
1.839374269005848,847.7926767474148,847.3726378495326,0.19472921749667457,0.29693249710607145,0.19706750289392855,0.3547193671082037,2076.4359659604675,5153.95971814214
1.8454649122807019,848.0821414049735,847.6612344761562,0.19511262474650773,0.29707121440453377,0.1969287855954662,0.35471936710820484,2076.1926776287087,5160.547826276725
1.8469875730994154,848.1548707514627,847.7336550505739,0.195209835078957,0.2971063852436503,0.1968936147563497,0.3547193671082051,2076.130993506613,5162.192921087214
1.8485102339181287,848.2276991901916,847.8061681105281,0.1953073490571419,0.29714166594223385,0.19685833405776612,0.35471936710820545,2076.0691167082837,5163.837245534739
1.850032894736842,848.3003891406697,847.878649527676,0.19540405145539438,0.2971766530100221,0.1968233469899779,0.35471936710820573,2076.007754892204,5165.480800462944
1.8515555555555556,848.3721176933149,847.9506541717751,0.19549612305807665,0.297209964649264,0.196790035350736,0.354719367108206,2075.949331514377,5167.1235852056
1.8525706627680312,848.4185615385256,847.9979242026731,0.1955510657480953,0.2972298429941126,0.19677015700588743,0.35471936710820623,2075.914468022873,5168.218345069452
1.853585769980507,848.4634014481402,848.0442983567925,0.1955986246781587,0.2972470498839119,0.19675295011608812,0.35471936710820645,2075.8842898435078,5169.3127579309175
1.8546008771929827,848.5067850981815,848.0898004386282,0.1956396442764023,0.2972618908339847,0.1967381091660153,0.3547193671082066,2075.8582611504394,5170.406820769034
1.8556159844054583,848.5492055590365,848.1346452903641,0.19567655974620216,0.29727524690444057,0.1967247530955594,0.35471936710820684,2075.8348367027597,5171.50053130805
1.8566310916179338,848.5910898150779,848.1790343659336,0.19571143618428596,0.2972878652502675,0.19671213474973254,0.35471936710820706,2075.8127061080913,5172.5938882768205
1.8576461988304094,848.632682485209,848.2230901827164,0.19574543658585453,0.297300166644814,0.196699833355186,0.35471936710820723,2075.791131396136,5173.686891099694
1.8596764132553607,848.7154019059234,848.3104327349116,0.1958126798815561,0.29732449536661937,0.19667550463338065,0.3547193671082077,2075.748462643158,5175.8718336330585
1.867797270955166,849.0431608114292,848.6523371129886,0.19608276793145615,0.2974222136143705,0.1965777863856295,0.3547193671082093,2075.577080200294,5184.59743762734
1.8759181286549709,849.3678982729944,848.9859873961523,0.19635637702240882,0.2975212057798756,0.19647879422012435,0.35471936710821095,2075.4034635059807,5193.300427240703
1.9002807017543861,850.3366273513337,849.9653180057965,0.1971976595858473,0.2978255830301583,0.1961744169698417,0.3547193671082161,2074.869633664512,5219.274724006791
1.9246432748538014,851.309810125299,850.939469805065,0.1980709413648672,0.29814153764299794,0.19585846235700205,0.3547193671082215,2074.3154989493614,5245.0496595086925
1.9490058479532166,852.2939356725519,851.921751641655,0.1989786019081656,0.2984699305425607,0.19553006945743934,0.35471936710822716,2073.7395494349016,5270.628962299331
1.9733684210526317,853.2913953852125,852.9164486505298,0.1999231546260869,0.29881167108435047,0.19518832891564955,0.3547193671082331,2073.14019025455,5296.016450111274
1.9977309941520467,854.3034432678908,853.9253397350425,0.2009071433977125,0.2991676796475044,0.19483232035249556,0.35471936710823926,2072.5158072080058,5321.215917200757
2.022093567251462,855.3310224609157,854.9495134766331,0.2019331244037982,0.29953888106192345,0.19446111893807658,0.3547193671082458,2071.8647782890303,5346.231105292931
2.046456140350877,856.3749959400419,855.9898732117664,0.20300366572255132,0.2999262044620234,0.19407379553797663,0.3547193671082526,2071.1854739419387,5371.0656975321945
2.0708187134502922,857.4362118267728,857.0472781515821,0.2041213519644024,0.3003305849636026,0.1936694150363974,0.35471936710825974,2070.476254120645,5395.723318724816
2.0951812865497073,858.5155230339136,858.1225838849487,0.20528879056012803,0.30075296593889367,0.19324703406110638,0.3547193671082673,2069.7354642985747,5420.207537287337
2.1195438596491227,859.6137944433383,859.2166552573044,0.2065086188511661,0.3011943015818496,0.1928056984181504,0.3547193671082752,2068.9614309695557,5444.521867651226
2.143906432748538,860.731906797993,860.3303717964869,0.2077835117954042,0.30165555969610974,0.19234444030389028,0.35471936710828345,2068.152456758168,5468.669772789591
2.1682690058479532,861.8707598400515,861.4646312434154,0.2091161902424564,0.3021377246890062,0.1918622753109938,0.3547193671082921,2067.3068151687226,5492.654666781968
2.1926315789473687,863.0312753847871,862.6203527093772,0.2105094297350352,0.3026418007559135,0.19135819924408645,0.35471936710830126,2066.4227450004173,5516.479917400872
2.2169941520467837,864.2144005056696,863.7984798649023,0.2119660697667848,0.30316881522974604,0.19083118477025396,0.35471936710831087,2065.498444472842,5540.148848721448
2.241356725146199,865.4211108589875,864.9999842526447,0.21348902339896203,0.3037198220602867,0.19028017793971325,0.35471936710832097,2064.5320651237844,5563.664743759212
2.2657192982456142,866.6524141331506,866.2258687275406,0.21508128712320812,0.3042959053825527,0.18970409461744728,0.3547193671083316,2063.521705550876,5587.030847140737
2.2900818713450293,867.9093535944762,867.477171001242,0.21674595084927517,0.3048981831303688,0.18910181686963118,0.3547193671083428,2062.4654050739555,5610.250367810871
2.3144444444444443,869.193011699779,868.7549672619547,0.21848620790381487,0.3055278106539441,0.18847218934605595,0.35471936710835456,2061.3611373904046,5633.3264817786
2.33880701754386,870.5045137482855,870.0603758416078,0.22030536493737182,0.30618598430423605,0.18781401569576395,0.354719367108367,2060.2068042887404,5656.262334902412
2.3631695906432753,871.84502040754,871.3945544910954,0.22220680216721164,0.30687392704874866,0.1871260729512514,0.3547193671083801,2059.00026087624,5679.061045727411
2.3875321637426903,873.2157082939349,872.7586720691241,0.22419393223833634,0.3075928735873877,0.18640712641261234,0.3547193671083939,2057.739341683394,5701.725706396792
2.4118947368421053,874.6179235321554,874.1540488747589,0.2262707360443492,0.30834426421322625,0.18565573578677377,0.35471936710840857,2056.4215206626013,5724.25938881702
2.4362573099415203,876.0530003082919,875.5820196083138,0.22844104336023102,0.3091294845444008,0.18487051545559918,0.354719367108424,2055.0443676575037,5746.665147527555
2.460619883040936,877.5223296114857,877.0439673753303,0.23070885065361424,0.30994998050869094,0.1840500194913091,0.3547193671084403,2053.605346738111,5768.946021309167
2.484982456140351,879.0273672609242,878.5413376665632,0.2330783274917539,0.3108072606615699,0.18319273933843008,0.3547193671084576,2052.101812135304,5791.105036124502
2.521526315789474,881.3552329993647,880.8571417211975,0.2368327380636972,0.31216561184579683,0.1818343881542032,0.3547193671084854,2049.7194777240957,5824.121668812001
2.558070175438597,883.7723503805,883.2614889085789,0.24084120797188766,0.31361588206595215,0.18038411793404782,0.35471936710851576,2047.1759317757812,5856.881058700396
2.5946140350877194,886.2845755510219,885.7601933385558,0.24512020690652467,0.31516403007981086,0.1788359699201891,0.35471936710854896,2044.4607235660856,5889.3933509958615
2.6311578947368424,888.8981899293557,888.3594925304463,0.24968725328073918,0.31681639407462375,0.17718360592537624,0.35471936710858537,2041.5627369110875,5921.668705339802
2.6555204678362574,890.700233781114,890.1515290934337,0.2529011248552286,0.3179791774664498,0.1760208225335502,0.35471936710861157,2039.5233976597208,5943.059010084396
2.679883040935673,892.5524379710299,891.9933387418496,0.25625706740876375,0.31919336234432294,0.17480663765567703,0.35471936710863944,2037.393908283393,5964.3515771075245
2.704245614035088,894.4570171375505,893.8871219317806,0.25976111301945215,0.32046113112284147,0.17353886887715855,0.3547193671086692,2035.1704411700282,5985.549459024766
2.728608187134503,896.4162902220312,895.8351832239318,0.26341953311803173,0.3217847528147321,0.17221524718526793,0.3547193671087009,2032.8490168280466,6006.655727864384
2.752970760233918,898.4333842560516,897.8399569044286,0.267241722852733,0.3231665840809034,0.17083341591909662,0.35472040962606743,2030.4236736332473,6027.673477036132
2.7773333333333334,900.5270319914508,899.91305477,0.2712847101006976,0.3246090686464672,0.16939093135353275,0.35474068370422773,2027.8582249535318,6048.606097637165
2.8016959064327485,902.7157722305889,902.0755579199438,0.2755865133529293,0.32611482517155566,0.16788517482844434,0.35479132582817546,2025.128546426994,6069.457699364603
2.8260584795321635,905.0096050643735,904.3399603071449,0.2801656871389977,0.3276866805165604,0.1663133194834396,0.3548762221931987,2022.2228644094284,6090.232792698522
2.850421052631579,907.417640228569,906.7157899870874,0.28504258019443723,0.3293276090900888,0.16467239090991118,0.3549997605926873,2019.12826675605,6110.936134112846
2.8747836257309944,909.9494153869394,909.2125217411322,0.2902393494223817,0.33104070782640077,0.16295929217359925,0.3551668604920358,2015.8306939622378,6131.572716902562
2.8991461988304095,912.6151956957631,911.8403257586367,0.29578002481643223,0.3328291662346861,0.16117083376531388,0.35538302646855335,2012.314897967196,6152.147787764079
2.923508771929825,915.4258095954816,914.6102858102216,0.30169040513766376,0.3346961658622979,0.1593038341377021,0.3556544110040208,2008.5645083513607,6172.666865448405
2.94787134502924,918.3914585958195,917.5344332801776,0.3079971318849189,0.3366444770700322,0.15735552292996782,0.35598788267052095,2004.562619941938,6193.1357387908665
2.972233918128655,921.5163577281903,920.6255173612723,0.31472311480982346,0.3386747321981971,0.1553252678018029,0.3563910979090751,2000.294695519675,6213.560366872318
2.9965964912280705,924.7757668926176,923.8945354436084,0.3218670838820256,0.34077795781156855,0.15322204218843138,0.3568725706560862,1995.7615409732598,6233.946354276936
3.0209590643274855,928.0370849158569,927.3170594765686,0.32933174541462445,0.3429096744490138,0.1510903255509862,0.35744157937580884,1991.0248933167602,6254.2967738986445
3.033140350877193,929.5715974338231,929.0249165818026,0.33310312993654645,0.34395408203959665,0.15004591796040334,0.35776166416917454,1988.6317882068354,6264.457570896426
3.0453216374269005,930.9857360709182,930.6467342308639,0.3368543936728729,0.3449666287660134,0.1490333712339866,0.35810633009732723,1986.2514505976903,6274.606686598403
3.0575029239766085,932.2724425819673,932.1265148294632,0.3405835032614655,0.34594666054699647,0.1480533394530035,0.35847549556816694,1983.8851707447461,6284.741948688273
3.069684210526316,933.4577926966658,933.4581946660104,0.3443164654810627,0.34690402487548694,0.14709597512451306,0.35886872237897843,1981.5164462323164,6294.861392066079
3.0940467836257315,935.6770692593872,935.8265370369243,0.3519223722928966,0.34879838352200665,0.14520161647799332,0.35972619183628746,1976.690172392773,6315.048102470053
3.1184093567251465,937.8821647959126,938.0654385893664,0.35985341811797206,0.3507143279325123,0.14328567206748774,0.36067971129565735,1971.6575839147988,6335.163198772634
3.1427719298245615,940.1883742004059,940.3593044330446,0.3681891926022587,0.352675194237563,0.141324805762437,0.3617347402757486,1966.368177757041,6355.209112729306
3.1671345029239766,942.643660918872,942.7846140623568,0.37696974114203924,0.35468752005599086,0.1393124799440091,0.36289922964012133,1960.7965433993272,6375.190821488644
3.191497076023392,945.2729253702097,945.3752973131483,0.3862259397933649,0.35675324328143065,0.13724675671856937,0.364182412496953,1954.9230886608332,6395.114352664906
3.215859649122807,948.0950456911794,948.1525299538503,0.3959877743372719,0.35887315296549155,0.13512684703450842,0.36559434869365603,1948.7287862783865,6414.986322386417
3.240222222222222,951.1281893155399,951.1347866262944,0.4062860915578757,0.36104767902382473,0.13295232097617526,0.36714576872576266,1942.1940626454611,6434.813827749889
3.2645847953216376,954.3912825655399,954.3407768882179,0.4171527909473919,0.36327703455956295,0.13072296544043707,0.368848000772639,1935.298676167125,6454.604442871295
3.2889473684210526,957.9043625196111,957.7902095632638,0.4286206353649316,0.3655612158180206,0.12843878418197935,0.3707129022388635,1928.0218374051494,6474.366241763529
3.3133099415204676,961.6886066272025,961.5039390708188,0.44072290828694666,0.36789997047656803,0.1261000295234319,0.3727527674570665,1920.3424265672913,6494.107826389666
3.3376725146198836,965.7662424578504,965.5039183549654,0.45349293973352733,0.37029275568902287,0.12370724431097715,0.37498019812298705,1912.2392943273742,6513.8383534034365
3.3620350877192986,970.1603764318564,969.813056263214,0.46696348284641065,0.37273868918422226,0.12126131081577773,0.37740792664192063,1903.6916574132592,6533.567556673142
3.3863976608187136,974.8947378872082,974.4549902772558,0.48116591594117175,0.37523649345575916,0.11876350654424084,0.3800485832403097,1894.679604938929,6553.305763199888
3.410760233918129,979.99332380554,979.453763103294,0.4961292447797523,0.37778443264798733,0.11621556735201266,0.38291439810049405,1885.184731505328,6573.0638997741835
3.435122807017544,985.4799267772014,984.8333858306195,0.5118788831502236,0.38038024186248454,0.11361975813751544,0.3860168308662392,1875.1909109747623,6592.8534872483415
3.459485380116959,991.3775291499649,990.6172695101162,0.5284351970175907,0.38302104891447125,0.11097895108552877,0.38936612215796945,1864.6852202696093,6612.686618798924
3.4838479532163746,997.7075491192709,996.8275088784251,0.5458118095389027,0.3857032890303775,0.10829671096962253,0.39297076562721206,1853.6590149128717,6632.575918092739
3.5082105263157897,1004.4889301828819,1003.4840066532558,0.5640136819891977,0.38842261361466074,0.10557738638533927,0.396836904866006,1842.1091467629117,6652.534472928456
3.5325730994152047,1011.7370744381959,1010.603434918786,0.5830350094606762,0.39117379504277916,0.1028262049572208,0.4009676672748414,1830.0392992825095,6672.575739795554
3.5569356725146197,1019.4626329547721,1018.1980420771415,0.6028569994743176,0.393950630457808,0.10004936954219201,0.40536245656450715,1817.4613971049964,6692.713414979283
3.581298245614035,1027.6701827144393,1026.274329710198,0.6234456344354264,0.3967458487329416,0.09725415126705839,0.4100162362467638,1804.3970258521033,6712.961268455583
3.6056608187134507,1036.3568384436162,1034.8316428199116,0.6447495516220076,0.39955102604612913,0.0944489739538709,0.41491884703643117,1790.8787773721954,6733.332937960771
3.6300233918128657,1045.5108672484603,1043.860737721912,0.6666982020296549,0.40235651678736034,0.09164348321263964,0.4200544098115148,1776.951418032097,6753.841682347698
3.6543859649122807,1055.1103916407794,1053.3424118108333,0.6892004658495756,0.40515140763039253,0.08884859236960743,0.4254008706194237,1762.672767255622,6774.500095649577
3.678748538011696,1065.1222791152397,1063.2462951899493,0.7121439017185982,0.40792350336105876,0.08607649663894121,0.4309297432262262,1748.1141739066186,6795.319786074541
3.7031111111111112,1075.5013207640768,1073.52991221939,0.735394784915916,0.4106593532625477,0.08334064673745227,0.43660609655100746,1733.3604920514977,6816.3110272609665
3.7274736842105267,1086.1897951627175,1084.1381183892352,0.758799045349342,0.41334432633171614,0.08065567366828391,0.4423888188143436,1718.5094857667561,6837.482392258982
3.7640175438596497,1102.6351085432045,1100.4971104940848,0.7937864055444898,0.41723912233749727,0.07676087766250278,0.4511525004162541,1696.3085062646408,6869.613954053531
3.8005614035087723,1119.2471655472684,1117.0703808623607,0.8279044066179173,0.4209089837458056,0.07309101625419438,0.45982658122588643,1674.659172383505,6902.35038948639
3.8249239766081877,1130.2479437640768,1128.0719196624786,0.8498320974646579,0.4232033896145535,0.07079661038544645,0.46546564567395166,1660.7451127830686,6924.517814457723
3.8492865497076028,1141.068245121082,1138.9143626509062,0.8708773754453393,0.4253581607871026,0.06864183921289738,0.47092508656485077,1647.3909819638416,6946.954603793731
3.873649122807018,1151.6011898352626,1149.4904069500499,0.8908506199948331,0.42735879849974157,0.0666412015002584,0.4761507976671127,1634.717102300993,6969.652588293922
3.8980116959064333,1161.740030181071,1159.6925021160819,0.9095721585968252,0.42919196676521265,0.06480803323478737,0.48109110919128634,1622.8374837063745,6992.600204616439
3.9223742690058483,1171.3805426472961,1169.4153538700161,0.9268757992572928,0.4308458623236595,0.06315413767634052,0.4856976958930144,1611.857582122708,7015.782538075543
3.9467368421052633,1180.4231981666708,1178.5582296424218,0.9426116031590399,0.432310568076945,0.061689431923055024,0.48992622678914377,1601.8725401554539,7039.181445675293
3.9832807017543863,1192.664763927883,1190.9811321731436,0.9629924015166857,0.43413673800309743,0.05986326199690256,0.49547385923613857,1588.9400501347407,7074.6387892141365
4.019824561403509,1203.0725478134343,1201.6051263373868,0.9791872819540739,0.4355055099850282,0.05849449001497184,0.4999644184593198,1578.6637044309134,7110.452219174988
4.044187134502924,1208.8712646866804,1207.5675146125243,0.9875169461464064,0.436163386064699,0.057836613935301,0.5023202269523095,1573.3781755152702,7134.479270771727
4.052307992202729,1210.5876434816,1209.3422506669544,0.9898400923148086,0.4363381496628008,0.05766185033719916,0.50298598100367,1571.9040397080119,7142.508897562776
4.060428849902535,1212.1917687850512,1211.0068520540403,0.9919324658632787,0.4364910780146278,0.05750892198537222,0.5035900764330742,1570.5763390183556,7150.546881145062
4.068549707602339,1213.681174659457,1212.5590595200272,0.9937915679257533,0.43662252893219355,0.05737747106780645,0.504131251335147,1569.3966590839127,7158.592018762616
4.076670565302145,1215.0532661992645,1213.9965625834493,0.9954147363339986,0.43673294416232217,0.057267055837677806,0.50460810078674,1568.3666891645207,7166.6430842157515
4.084791423001949,1216.3052307716694,1215.3169424441692,0.9967990141624862,0.4368228700212116,0.057177129978788384,0.5050190086517155,1567.4883055561525,7174.698826337073
4.092912280701754,1217.4339132359053,1216.5175972875645,0.9979409703740392,0.4368929909133962,0.05710700908660387,0.5053620491713173,1566.7636853989418,7182.757966380574
4.101033138401559,1218.43564160127,1217.5956492927487,0.9988364644099298,0.43694418812658814,0.057055811873411875,0.505634842997687,1566.1954560548534,7190.819193882902
4.105093567251462,1218.8875548127533,1218.08770057436,0.9991902382012912,0.4369630456340539,0.05703695436594605,0.5057439813604772,1565.9709714225007,7194.850170755315
4.109153996101365,1219.3060080641205,1218.5478546259765,0.9994804119433407,0.4369776548781511,0.05702234512184891,0.5058343573966523,1565.7868437471527,7198.881160459023
4.113214424951267,1219.6903194326894,1218.9756579835143,0.9997062425959644,0.4369882564271095,0.05701174357289052,0.5059054617049926,1565.6435445196064,7202.911987181191
4.117274853801169,1220.0398168435242,1219.3706865665301,0.9998671383480345,0.4369951655802593,0.05700483441974072,0.5059567648680449,1565.5414492693856,7206.942471833521
4.119981806367771,1220.253237195872,1219.6156858634074,0.9999383345206965,0.4369979318499132,0.05700206815008681,0.5059797574768078,1565.496272246567,7209.629181834534
4.122688758934373,1220.45108443986,1219.8460326099482,0.9999813484003459,0.43699943800315894,0.05700056199684109,0.505993813807537,1565.4689780964775,7212.315604971664
4.124042235217674,1220.5443640082194,1219.955794098381,0.9999928928278131,0.4369998001866391,0.0570001998133609,0.5059976284146399,1565.4616526624884,7213.658692384495
4.124718973359324,1220.589682323475,1220.0093569286,0.9999964154461852,0.4369999032584675,0.05700009674153254,0.505998799831242,1565.4594174101621,7214.330202276039
4.125395711500975,1220.6341879380936,1220.062065764053,0.9999986133084046,0.4369999643109918,0.05700003568900822,0.5059995339684529,1565.4580227723898,7215.001688645459
4.125846870262075,1220.6634465665982,1220.0967439383699,0.9999994425378154,0.4369999862028914,0.05700001379710862,0.5059998120929554,1565.4574965907902,7215.449332825943
4.126072449642625,1220.6779646196067,1220.1139486330424,0.9999996969947308,0.43699999269156414,0.05700000730843585,0.5059998976671634,1565.4573351269719,7215.673150828578
4.126298029023175,1220.692415586457,1220.1310658945708,0.9999998623008741,0.43699999680788915,0.05700000319211088,0.5059999533588405,1565.4572302331396,7215.896966079052
4.126523608403725,1220.7068059606625,1220.1480976308947,0.9999999545616451,0.4369999990482957,0.057000000951704335,0.5059999844985146,1565.4571716897265,7216.120778559154
4.1267491877842755,1220.7211434462808,1220.1650460309377,0.9999999928596641,0.4369999999539755,0.05700000004602453,0.5059999974491135,1565.457147387992,7216.34458825272
4.126861977474551,1220.7282951686477,1220.1734897544766,0.9999999987344531,0.43700000008952794,0.056999999910472075,0.5059999994390681,1565.4571436601864,7216.456492050158
4.126974767164826,1220.7354372501713,1220.1819136188747,0.9999999999791389,0.4370000001176416,0.056999999882358356,0.5059999998612837,1565.45714287038,7216.568395146031
4.1270875568551,1220.7425710858918,1220.1903179952287,1.000000000037388,0.4370000001186348,0.05699999988136519,0.5059999998813652,1565.4571428334184,7216.6802975390865
4.127200346545376,1220.7496971811622,1220.1987031242131,1.000000000037388,0.4370000001182993,0.056999999881700666,0.5059999998817006,1565.4571428334184,7216.792199228215
4.127425925925926,1220.763926497888,1220.2154163469518,1.000000000037388,0.43700000011762824,0.05699999988237178,0.5059999998823718,1565.4571428334184,7217.016000490399
4.127651505306476,1220.7781257766796,1220.232054667907,1.000000000037388,0.4370000001169569,0.0569999998830431,0.5059999998830431,1565.4571428334184,7217.239798924101
4.127877084687026,1220.7922955613997,1220.2486194396122,1.000000000037388,0.43700000011628537,0.05699999988371462,0.5059999998837146,1565.4571428334184,7217.463594521001
4.128102664067576,1220.8064363861063,1220.2651119902118,1.000000000037388,0.4370000001156137,0.056999999884386345,0.5059999998843864,1565.4571428334184,7217.687387272936
4.128441033138401,1220.8275944677346,1220.2897182480215,1.000000000037388,0.4370000001146057,0.05699999988539431,0.5059999998853943,1565.4571428334184,7218.023071049045
4.128779402209227,1220.8486902973164,1220.314169240171,1.000000000037388,0.4370000001135973,0.056999999886402725,0.5059999998864028,1565.4571428334184,7218.358748379596
4.129117771280052,1220.8697255585084,1220.3384691537033,1.000000000037388,0.4370000001125884,0.05699999988741159,0.5059999998874116,1565.4571428334184,7218.694419238933
4.129456140350877,1220.890701889643,1220.3626220629296,1.000000000037388,0.4370000001115791,0.056999999888420916,0.5059999998884209,1565.4571428334184,7219.030083602125
4.129794509421702,1220.9116208849473,1220.386631932466,1.000000000037388,0.43700000011056933,0.05699999988943069,0.5059999998894307,1565.4571428334184,7219.365741444947
4.130132878492527,1220.9324840957322,1220.4105026201876,1.000000000037388,0.4370000001095591,0.05699999989044092,0.5059999998904409,1565.4571428334184,7219.701392743862
4.130471247563353,1220.953293031548,1220.4342378801064,1.000000000037388,0.4370000001085484,0.05699999989145159,0.5059999998914516,1565.4571428334184,7220.037037475996
4.130809616634178,1220.9740491613088,1220.457841365167,1.000000000037388,0.4370000001075373,0.05699999989246271,0.5059999998924627,1565.4571428334184,7220.372675619127
4.131035196014728,1220.987857951911,1220.4735055729466,1.000000000037388,0.43700000010686296,0.056999999893137046,0.505999999893137,1565.4571428334184,7220.59643070997
4.131260775395278,1221.0016443231984,1220.4891138253936,1.000000000037388,0.43700000010618845,0.056999999893811576,0.5059999998938116,1565.4571428334184,7220.820182856516
4.131486354775828,1221.015408681683,1220.504667133428,1.000000000037388,0.4370000001055137,0.0569999998944863,0.5059999998944863,1565.4571428334184,7221.0439320526375
4.131711934156378,1221.0291514265482,1220.5201664897431,1.000000000037388,0.43700000010483875,0.05699999989516123,0.5059999998951612,1565.4571428334184,7221.267678292326
4.131862320410079,1221.0383014427587,1220.5304699028845,1.000000000037388,0.4370000001043887,0.05699999989561129,0.5059999998956113,1565.4571428334184,7221.416840806742
4.132012706663779,1221.0474421416727,1220.540750055565,1.000000000037388,0.4370000001039386,0.05699999989606144,0.5059999998960615,1565.4571428334184,7221.566002002848
4.132163092917478,1221.0565736363062,1220.5510072288316,1.000000000037388,0.43700000010348833,0.05699999989651168,0.5059999998965117,1565.4571428334184,7221.715161878948
4.132238286044329,1221.061135966962,1220.5561272850848,1.000000000037388,0.4370000001032632,0.05699999989673683,0.5059999998967368,1565.4571428334184,7221.789741321471
4.132313479171178,1221.065696038312,1220.561241700344,1.000000000037388,0.437000000103038,0.05699999989696201,0.505999999896962,1565.4571428334184,7221.864320433367
4.132388672298028,1221.0702538641028,1220.566350508794,1.000000000037388,0.4370000001028128,0.0569999998971872,0.5059999998971872,1565.4571428334184,7221.938899214429
4.132463865424878,1221.0748094579978,1220.571453744413,1.000000000037388,0.4370000001025876,0.05699999989741242,0.5059999998974124,1565.4571428334184,7222.013477664454
4.132539058551728,1221.079362833578,1220.5765514409736,1.000000000037388,0.43700000010236234,0.05699999989763766,0.5059999998976377,1565.4571428334184,7222.088055783236
4.132614251678579,1221.0839140043415,1220.5816436320438,1.000000000037388,0.4370000001021371,0.05699999989786292,0.5059999998978629,1565.4571428334184,7222.162633570577
4.132727041368854,1221.0907366557844,1220.5892716687874,1.000000000037388,0.4370000001017991,0.05699999989820086,0.5059999998982009,1565.4571428334184,7222.2744996296915
4.132839831059129,1221.0975544215012,1220.5968875049618,1.000000000037388,0.4370000001014612,0.056999999898538836,0.5059999998985388,1565.4571428334184,7222.3863649419345
4.133065410439679,1221.1111754734893,1220.612083017588,1.000000000037388,0.43700000010078505,0.056999999899214955,0.505999999899215,1565.4571428334184,7222.610093323154
4.133290989820229,1221.1247775117633,1220.6272310439183,1.000000000037388,0.43700000010010875,0.05699999989989126,0.5059999998998913,1565.4571428334184,7222.8338187089885
4.133516569200779,1221.138360881445,1220.6423324421917,1.000000000037388,0.43700000009943224,0.05699999990056777,0.5059999999005678,1565.4571428334184,7223.0575410942965
4.133629358891055,1221.1451456717098,1220.6498659197694,1.000000000037388,0.4370000000990939,0.0569999999009061,0.505999999900906,1565.4571428334184,7223.169401160172
4.133742148581329,1221.1519259214347,1220.6573880551773,1.000000000037388,0.4370000000987555,0.05699999990124448,0.5059999999012444,1565.4571428334184,7223.28126047403
4.133854938271604,1221.158701672028,1220.66489895139,1.000000000037388,0.4370000000984171,0.0569999999015829,0.505999999901583,1565.4571428334184,7223.393119035258
4.133967727961879,1221.1654729645243,1220.6723987104497,1.000000000037388,0.4370000000980786,0.05699999990192138,0.5059999999019213,1565.4571428334184,7223.504976843245
4.1341933073424295,1221.179002337507,1220.6873652206652,1.000000000037388,0.43700000009740153,0.05699999990259848,0.5059999999025985,1565.4571428334184,7223.728690197085
4.13441888672298,1221.1925143612855,1220.7022883838324,1.000000000037388,0.43700000009672424,0.056999999903275776,0.5059999999032758,1565.4571428334184,7223.952400530798
4.13464446610353,1221.2060093509783,1220.7171689835727,1.000000000037388,0.4370000000960467,0.05699999990395326,0.5059999999039533,1565.4571428334184,7224.176107839714
4.13487004548408,1221.219487616024,1220.7320077893828,1.000000000037388,0.43700000009536905,0.05699999990463095,0.505999999904631,1565.4571428334184,7224.399812119262
4.134982835174355,1221.2262205719758,1220.7394117562321,1.000000000037388,0.43700000009503015,0.056999999904969866,0.5059999999049699,1565.4571428334184,7224.511663121619
4.13509562486463,1221.2329494602834,1220.7468055568886,1.000000000037388,0.43700000009469114,0.05699999990530883,0.5059999999053089,1565.4571428334184,7224.623513364956
4.135208414554905,1221.2396743180745,1220.7541892836787,1.000000000037388,0.43700000009435214,0.05699999990564785,0.5059999999056478,1565.4571428334184,7224.73536284873
4.13532120424518,1221.246395182141,1220.7615630280939,1.000000000037388,0.4370000000940131,0.05699999990598691,0.5059999999059869,1565.4571428334184,7224.847211572399
4.13577236300628,1221.2732394253874,1220.790959982976,1.000000000037388,0.4370000000926563,0.056999999907343654,0.5059999999073437,1565.4571428334184,7225.294598855364
4.135885152696556,1221.2799408611486,1220.7982851591482,1.000000000037388,0.43700000009231704,0.056999999907682966,0.505999999907683,1565.4571428334184,7225.406443770562
4.1359979423868305,1221.2866385170441,1220.805600884756,1.000000000037388,0.4370000000919777,0.05699999990802232,0.5059999999080224,1565.4571428334184,7225.518287922514
4.136110732077105,1221.2933324275957,1220.8129072456468,1.000000000037388,0.43700000009163825,0.05699999990836173,0.5059999999083618,1565.4571428334184,7225.630131310716
4.136223521767381,1221.3000226270137,1220.8202043268914,1.000000000037388,0.4370000000912988,0.05699999990870118,0.5059999999087011,1565.4571428334184,7225.741973934667
4.136336311457656,1221.306709149198,1220.8274922127898,1.000000000037388,0.4370000000909593,0.056999999909040686,0.5059999999090407,1565.4571428334184,7225.85381579387
4.136449101147931,1221.313392027742,1220.8347709868792,1.000000000037388,0.4370000000906198,0.05699999990938023,0.5059999999093803,1565.4571428334184,7225.965656887835
4.136561890838205,1221.320071295935,1220.8420407319402,1.000000000037388,0.43700000009028017,0.05699999990971984,0.5059999999097199,1565.4571428334184,7226.077497216078
4.136674680528481,1221.326746986764,1220.8493015300046,1.000000000037388,0.4370000000899405,0.05699999991005949,0.5059999999100595,1565.4571428334184,7226.189336778117
4.137125839289581,1221.3534146258023,1220.8782568670583,1.000000000037388,0.4370000000885814,0.05699999991141857,0.5059999999114185,1565.4571428334184,7226.636687354782
4.137238628979857,1221.3600729142731,1220.8854741348493,1.000000000037388,0.4370000000882415,0.05699999991175846,0.5059999999117585,1565.4571428334184,7226.748523078754
4.137351418670131,1221.366727817129,1220.8926829324687,1.000000000037388,0.4370000000879016,0.056999999912098406,0.5059999999120984,1565.4571428334184,7226.860358033734
4.137464208360406,1221.3733793653241,1220.8998833368883,1.000000000037388,0.4370000000875616,0.05699999991243839,0.5059999999124384,1565.4571428334184,7226.972192219276
4.137576998050681,1221.3800275895314,1220.9070754243833,1.000000000037388,0.43700000008722156,0.05699999991277843,0.5059999999127784,1565.4571428334184,7227.084025634936
4.137689787740957,1221.386672520146,1220.9142592705377,1.000000000037388,0.4370000000868815,0.05699999991311852,0.5059999999131185,1565.4571428334184,7227.195858280273
4.1378025774312315,1221.3933141872888,1220.9214349502524,1.000000000037388,0.43700000008654133,0.05699999991345866,0.5059999999134587,1565.4571428334184,7227.307690154852
4.137915367121506,1221.3999526208065,1220.928602537749,1.000000000037388,0.43700000008620116,0.05699999991379884,0.5059999999137988,1565.4571428334184,7227.419521258242
4.138028156811782,1221.406587850277,1220.9357621065778,1.000000000037388,0.43700000008586093,0.05699999991413907,0.505999999914139,1565.4571428334184,7227.53135159002
4.138479315572883,1221.4330973099125,1220.9643216430325,1.000000000037388,0.4370000000844995,0.05699999991550049,0.5059999999155005,1565.4571428334184,7227.978665192603
4.138704894953433,1221.4463335650094,1220.9785551631876,1.000000000037388,0.4370000000838185,0.05699999991618149,0.5059999999161815,1565.4571428334184,7228.202317353432
4.138930474333983,1221.459557802383,1220.9927585942123,1.000000000037388,0.43700000008313733,0.05699999991686268,0.5059999999168627,1565.4571428334184,7228.425966416337
4.139099658869396,1221.4694682256893,1221.0033917494998,1.000000000037388,0.4370000000826263,0.0569999999173737,0.5059999999173737,1565.4571428334184,7228.593701178618
4.139268843404809,1221.47937210325,1221.0140085123592,1.000000000037388,0.43700000008211515,0.05699999991788483,0.5059999999178848,1565.4571428334184,7228.7614341952585
4.139438027940221,1221.4892695247745,1221.0246091058686,1.000000000037388,0.43700000008160395,0.05699999991839607,0.5059999999183961,1565.4571428334184,7228.92916546498
4.139607212475633,1221.4991605787563,1221.0351937500834,1.000000000037388,0.4370000000810926,0.05699999991890742,0.5059999999189074,1565.4571428334184,7229.096894986524
4.140283950617284,1221.538662847488,1221.077377131554,1.000000000037388,0.4370000000790461,0.0569999999209539,0.5059999999209539,1565.4571428334184,7229.7677955664285
4.140960688758934,1221.5780700100593,1221.119322170351,1.000000000037388,0.4370000000769979,0.05699999992300212,0.5059999999230022,1565.4571428334184,7230.438668079711
4.1416374269005845,1221.6173871811272,1221.1610415849264,1.000000000037388,0.43700000007494794,0.05699999992505207,0.5059999999250521,1565.4571428334184,7231.109512454605
4.14265253411306,1221.6762047271238,1221.2232238296385,1.000000000037388,0.43700000007186973,0.05699999992813026,0.5059999999281303,1565.4571428334184,7232.1157261110975
4.1436676413255356,1221.734845903972,1221.2849633507149,1.000000000037388,0.43700000006878764,0.056999999931212346,0.5059999999312124,1565.4571428334184,7233.1218760949705
4.1446827485380116,1221.7933247864748,1221.3462951471424,1.000000000037388,0.43700000006570167,0.056999999934298315,0.5059999999342983,1565.4571428334184,7234.127962214884
4.145697855750487,1221.8516543435553,1221.4072514678592,1.000000000037388,0.4370000000626118,0.056999999937388184,0.5059999999373882,1565.4571428334184,7235.133984297138
4.146712962962962,1221.9098465251705,1221.4678620279021,1.000000000037388,0.43700000005951806,0.05699999994048193,0.505999999940482,1565.4571428334184,7236.139942184289
4.147728070175438,1221.9679123423916,1221.528154207563,1.000000000037388,0.4370000000564204,0.05699999994357956,0.5059999999435796,1565.4571428334184,7237.145835733864
4.148743177387914,1222.025861941191,1221.5881532358826,1.000000000037388,0.43700000005331896,0.05699999994668107,0.5059999999466811,1565.4571428334184,7238.151664817186
4.149758284600389,1222.0837046704253,1221.6478823597188,1.000000000037388,0.43700000005021356,0.05699999994978645,0.5059999999497865,1565.4571428334184,7239.157429318283
4.150773391812865,1222.1414491444775,1221.707362999524,1.000000000037388,0.43700000004710426,0.056999999952895716,0.5059999999528957,1565.4571428334184,7240.163129132887
4.151788499025341,1222.1991033009724,1221.7666148928747,1.000000000037388,0.43700000004399114,0.05699999995600885,0.5059999999560089,1565.4571428334184,7241.168764167517
4.152803606237816,1222.256674453956,1221.8256562267165,1.000000000037388,0.43700000004087414,0.056999999959125865,0.5059999999591259,1565.4571428334184,7242.174334338622
4.153818713450292,1222.314169342896,1221.8845037592175,1.000000000037388,0.43700000003775324,0.05699999996224675,0.5059999999622468,1565.4571428334184,7243.179839571806
4.154833820662768,1222.3715941778296,1221.943172932039,1.000000000037388,0.43700000003462847,0.056999999965371514,0.5059999999653715,1565.4571428334184,7244.185279801097
4.155848927875244,1222.4289546809623,1222.001677973785,1.000000000037388,0.43700000003149986,0.05699999996850015,0.5059999999685002,1565.4571428334184,7245.19065496829
4.15686403508772,1222.486256125,1222.0600319953173,1.000000000037388,0.43700000002836736,0.056999999971632666,0.5059999999716327,1565.4571428334184,7246.195965022332
4.157879142300195,1222.5435033684657,1222.1182470775823,1.000000000037388,0.43700000002523093,0.05699999997476906,0.5059999999747691,1565.4571428334184,7247.201209918757
4.15889424951267,1222.6007008882411,1222.1763343525313,1.000000000037388,0.43700000002209066,0.056999999977909326,0.5059999999779093,1565.4571428334184,7248.2063896191685
4.159909356725146,1222.6578528095522,1222.2343040776857,1.000000000037388,0.4370000000189465,0.05699999998105348,0.5059999999810535,1565.4571428334184,7249.211504090761
4.160924463937622,1222.7149629335975,1222.2921657048378,1.000000000037388,0.4370000000157985,0.056999999984201515,0.5059999999842015,1565.4571428334184,7250.216553305876
4.161939571150097,1222.7720347630036,1222.349927943355,1.000000000037388,0.43700000001264655,0.05699999998735343,0.5059999999873535,1565.4571428334184,7251.221537241593
4.162616309291748,1222.8100629789813,1222.3883848760927,1.000000000037388,0.4370000000105431,0.05699999998945687,0.5059999999894569,1565.4571428334184,7251.891490256411
4.163293047433398,1222.8480765076504,1222.4268034359793,1.000000000037388,0.43700000000843797,0.056999999991562036,0.5059999999915621,1565.4571428334184,7252.561414245348
4.163969785575048,1222.8860761944936,1222.465185725317,1.000000000037388,0.43700000000633105,0.056999999993668934,0.505999999993669,1565.4571428334184,7253.231309204664
4.164646523716699,1222.9240628401235,1222.5035337348318,1.000000000037388,0.43700000000422246,0.05699999999577756,0.5059999999957776,1565.4571428334184,7253.901175131336
4.165323261858349,1222.9620372026627,1222.5418493495968,1.000000000037388,0.4370000000021121,0.056999999997887914,0.5059999999978879,1565.4571428334184,7254.571012023008
4.166,1222.9999999999998,1222.580134354641,1.000000000037388,0.437,0.057,0.506,1565.4571428334184,7255.240819877966
