z,T,t,fs,x,y,w,rhob,p
0.0,556.2445762185056,298.0,0.0,0.22647899200230845,0.2675210079976915,0.3547195591887689,2200.0,2040.0
0.0025526960784313726,579.4487151979329,351.3907346787102,6.325187345644475e-07,0.22647922084850303,0.267520779151497,0.3547195591887689,2199.9995986397553,2045.3209028554843
0.005105392156862745,599.8245275667489,397.84787069655613,2.7888222204179324e-06,0.22648000100222818,0.26751999899777185,0.3547195591887689,2199.99823037278,2050.9638001837743
0.007658088235294118,617.7808001187677,438.4742641723533,7.7550801218055e-06,0.22648179780153196,0.26751820219846806,0.3547195591887689,2199.995079069302,2056.8909938727215
0.01021078431372549,633.6530480015529,474.1498470616754,1.679080697820779e-05,0.22648506694059942,0.2675149330594006,0.3547195591887689,2199.989345513366,2063.068777739683
0.015316176470588236,660.2143777627663,533.3740005003954,5.0875206902069726e-05,0.22649739872587274,0.2675026012741272,0.3547195591887689,2199.9677175008546,2076.05897347544
0.02042156862745098,681.2484748427855,579.8614071644233,0.0001097448927884939,0.22651869786351586,0.2674813021364842,0.3547195591887689,2199.930362162173,2089.730373164043
0.025526960784313726,698.0143382543406,616.6560044014392,0.00019434298385402702,0.22654930557542763,0.26745069442457237,0.3547195591887689,2199.8766810477596,2103.9206463954033
0.03063235294117647,711.4463577208488,645.963486833486,0.0003034168592911762,0.22658876866158514,0.2674112313384149,0.3547195591887689,2199.8074689992004,2118.500618953134
0.03573774509803922,722.2515430434231,669.4221334793965,0.00043470977633349855,0.22663627062918598,0.26736372937081404,0.3547195591887689,2199.7241580164978,2133.3674974287155
0.04084313725490196,730.9729604910926,688.272145462422,0.000585655505879118,0.22669088301282317,0.26730911698717685,0.3547195591887689,2199.6283764819977,2148.4394922338674
0.05105392156862745,743.7613307931185,715.7444007409296,0.0009366517616510406,0.2268178739666788,0.2671821260333212,0.3547195591887689,2199.4056543150136,2178.952081820496
0.06126470588235294,752.220963528113,733.7595839904266,0.0013391006385197646,0.2269634805533909,0.26703651944660906,0.3547195591887689,2199.1502832548317,2209.6626284052472
0.0680718954248366,756.2302501177018,742.2239216110676,0.0016293878133098092,0.22706850687379304,0.26693149312620695,0.3547195591887689,2198.9660836015487,2230.1258745476516
0.07487908496732026,759.3066271931898,748.6649305555446,0.0019337795894283315,0.22717863625939028,0.2668213637406097,0.3547195591887689,2198.7729339742395,2250.5244607609616
0.08168627450980392,761.67903165128,753.5815141424533,0.002249993571119823,0.22729304293609165,0.26670695706390835,0.3547195591887689,2198.5722826508286,2270.8251354579306
0.08849346405228758,763.5194541393014,757.3473777224586,0.0025762451127152256,0.2274110812165085,0.2665889187834915,0.3547195591887689,2198.3652620654775,2291.0042573653104
0.09530065359477125,764.9574710776848,760.2434459918035,0.0029111450729588035,0.22753224850732193,0.26646775149267804,0.35471955918876896,2198.1527536878475,2311.045323542149
0.1021078431372549,766.0909073812187,762.4814529782361,0.00325361543538031,0.2276561547806112,0.2663438452193888,0.35471955918876896,2197.93544156559,2330.9371260891767
0.10891503267973857,766.9937281938783,764.2212900547098,0.0036028213421209995,0.2277824979835935,0.2662175020164065,0.35471955918876896,2197.713855451795,2350.6723767201443
0.11572222222222223,767.7219185032682,765.5838671416032,0.0039581171417332195,0.22791104451863967,0.26608895548136036,0.35471955918876896,2197.4884050399787,2370.2466800900715
0.12252941176470589,768.3178856847309,766.6607065114326,0.004319003958358759,0.2280416138917414,0.2659583861082586,0.354719559188769,2197.2594068882518,2389.6577674276523
0.12933660130718955,768.8137685247417,767.5211327956374,0.0046850965290911265,0.228174066714221,0.265825933285779,0.354719559188769,2197.0271054624404,2408.9049246361906
0.1361437908496732,769.2339313718916,768.217680457869,0.0050560973971692635,0.2283082953657913,0.26569170463420866,0.354719559188769,2196.7916895116077,2427.988565775213
0.14295098039215687,769.5968480192516,768.7901713360942,0.0054317768920211125,0.22844421675130672,0.26555578324869333,0.354719559188769,2196.5533047715744,2446.909915272089
0.14975816993464053,769.9165268153606,769.2687953006173,0.0058119576345147484,0.22858176669474023,0.2654182333052598,0.3547195591887691,2196.312063797002,2465.670771470309
0.1565653594771242,770.2035899106571,769.6764410328317,0.00619650256576549,0.22872089560798883,0.26527910439201113,0.3547195591887691,2196.068053557626,2484.273331023816
0.16337254901960785,770.4660912078025,770.0304612354196,0.006585305710996351,0.22886156514922468,0.2651384348507753,0.3547195591887691,2195.8213412989853,2502.7200588014275
0.17017973856209148,770.7101366003524,770.3440104479687,0.00697828506139756,0.22900374564754156,0.2649962543524585,0.35471955918876913,2195.5719790591834,2521.0135918186147
0.17698692810457517,770.9403544444789,770.6270594228023,0.0073753770931474635,0.22914741411992876,0.2648525858800712,0.35471955918876913,2195.320007146808,2539.156668596994
0.18379411764705883,771.1602524929916,770.8871644802184,0.007776532550081331,0.22929255274543456,0.26470744725456546,0.35471955918876913,2195.0654568170066,2557.1520775103118
0.1906013071895425,771.372488711234,771.1300511167648,0.008181713200558653,0.22943914769179602,0.264560852308204,0.3547195591887692,2194.808352329394,2575.0026192924906
0.19740849673202612,771.5790767505304,771.3600567339566,0.008590889344643611,0.2295871882135333,0.2644128117864667,0.3547195591887692,2194.548712529852,2592.7110800947294
0.2042156862745098,771.7815418333881,771.5804664854096,0.009004037898685856,0.22973666595894832,0.2642633340410517,0.3547195591887692,2194.286552065945,2610.2802123865804
0.21102287581699344,771.9810390033608,771.7937680228729,0.009421140923920036,0.22988757443776972,0.2641124255622303,0.35471955918876924,2194.0218823205905,2627.712721676455
0.21783006535947713,772.1784428115193,772.0018446999123,0.009842184496301904,0.23003990861225815,0.2639600913877418,0.35471955918876924,2193.754712129189,2645.011257537141
0.22463725490196076,772.3744153262628,772.2061220762905,0.01026715783844779,0.23019366458314064,0.2638063354168593,0.35471955918876924,2193.4850483304544,2662.178407804247
0.23144444444444442,772.5694576947825,772.4076789892274,0.01069605265279866,0.2303488393483482,0.26365116065165184,0.3547195591887693,2193.2128961895423,2679.216695102088
0.23825163398692809,772.7639492254227,772.6073317433011,0.011128862609204952,0.2305054306176236,0.2634945693823764,0.3547195591887693,2192.9382597232047,2696.12857506619
0.24505882352941177,772.9581770041189,772.8056979101883,0.011565582950971515,0.23066343666998765,0.2633365633300123,0.3547195591887693,2192.661141949768,2712.9164357924797
0.25186601307189543,773.1523583320322,773.0032446649617,0.012006210191748086,0.2308228562440738,0.2631771437559262,0.35471955918876935,2192.3815450814704,2729.582598163633
0.2586732026143791,773.3466577201203,773.2003253977547,0.01245074188207086,0.23098368845366243,0.2630163115463376,0.35471955918876935,2192.0994706726024,2746.129316793204
0.26548039215686275,773.541199757689,773.3972074376601,0.012899176429295724,0.23114593272253264,0.26285406727746735,0.3547195591887694,2191.814919733765,2762.5587813955653
0.2722875816993464,773.7360788540612,773.5940930409365,0.01335151295845513,0.23130958873411991,0.2626904112658801,0.3547195591887694,2191.527892820162,2778.873118440091
0.2790947712418301,773.9313666111556,773.7911352757773,0.013807751204481813,0.2314746563925225,0.26252534360747753,0.35471955918876946,2191.2383900999903,2795.074392985634
0.28590196078431374,774.1271174015878,773.988450041338,0.014267891428476646,0.23164113579220705,0.2623588642077929,0.35471955918876946,2190.9464114075704,2811.1646106194084
0.2927091503267974,774.3233725878985,774.1861251593192,0.014731934352411756,0.23180902719438415,0.2621909728056159,0.35471955918876946,2190.6519562847798,2827.145719445282
0.29951633986928106,774.5201637130434,774.3842272492451,0.015199881107973982,0.2319783310084998,0.2620216689915002,0.3547195591887695,2190.3550240135146,2843.019612082043
0.3063235294117647,774.7175149122925,774.5828069262765,0.015671733196260765,0.23214904777765313,0.2618509522223469,0.3547195591887695,2190.055613641264,2858.788127643697
0.3131307189542484,774.915444736016,774.78190272974,0.01614749245581199,0.2323211781670306,0.2616788218329694,0.3547195591887696,2189.753724001396,2874.4530536824104
0.31993790849673204,775.1139675268494,774.9815440914887,0.016627161037052137,0.23249472295465887,0.2615052770453411,0.3547195591887696,2189.4493537293747,2890.0161280809793
0.3267450980392157,775.3130944598726,775.1817535781363,0.0171107413816691,0.23266968302394417,0.26133031697605585,0.35471955918876963,2189.142501275843,2905.4790408863237
0.33355228758169936,775.5128343280252,775.3825485843035,0.01759823620580232,0.23284605935758967,0.2611539406424103,0.35471955918876963,2188.833164917295,2920.8434360788783
0.34035947712418296,775.7131941349735,775.5839426109244,0.018089648486177314,0.233023853032579,0.260976146967421,0.3547195591887697,2188.521342764871,2936.1109132751826
0.3471666666666667,775.9141795424923,775.7859462300108,0.018584981448526355,0.23320306521598677,0.2607969347840133,0.3547195591887697,2188.207032771705,2951.28302936274
0.3573774509803922,776.2168406309561,776.0901124896376,0.01933533981370298,0.23347454595961392,0.2605254540403861,0.35471955918876974,2187.730898230785,2973.865706182232
0.36758823529411766,776.5209323829179,776.3956905028713,0.020094540223659793,0.2337492257678528,0.2602507742321472,0.3547195591887698,2187.249153033507,2996.242171367794
0.3777990196078431,776.8264650785036,776.7026964732439,0.020862596454018806,0.23402710962474332,0.25997289037525667,0.35471955918876985,2186.7617884386486,3018.4171846358718
0.38800980392156864,777.1334474277726,777.0111430468652,0.021639523350706468,0.23430820290156323,0.25969179709843676,0.3547195591887699,2186.2687950258332,3040.3953257434823
0.39822058823529416,777.4418871628158,777.3210405917963,0.022425336791279123,0.23459251134283537,0.2594074886571646,0.35471955918876996,2185.770162720071,3062.181003929259
0.4084313725490196,777.7517914242213,777.6323980339428,0.023220053651008817,0.2348800410540577,0.25911995894594225,0.35471955918876996,2185.2658808132783,3083.7784667421265
0.4186421568627451,778.0631670130036,777.9452234027291,0.024023691772564772,0.23517079849073372,0.25882920150926625,0.35471955918877,2184.7559379835175,3105.1918083001497
0.4288529411764706,778.3760205545852,778.2595241869808,0.024836269938489378,0.2354647904484145,0.2585352095515855,0.3547195591887701,2184.2403223124597,3126.4249770204356
0.43906372549019607,778.6903586053301,778.575307566777,0.025657807845911092,0.23576202405354965,0.2582379759464503,0.35471955918877013,2183.719021301433,3147.4817828586947
0.44927450980392153,779.0061877215911,778.8925805643116,0.02648832608310028,0.23606250675500523,0.2579374932449948,0.3547195591887702,2183.192021886298,3168.3659040945277
0.45948529411764705,779.3235145043191,779.2113501419103,0.027327846107584056,0.2363662463161456,0.2576337536838544,0.35471955918877024,2182.6593104513336,3189.080893695874
0.46969607843137257,779.6423456277616,779.5316232655944,0.02817639022561111,0.23667325080740387,0.25732674919259607,0.3547195591887703,2182.1208728422685,3209.6301852935253
0.4799068627450981,779.9626878578226,779.853406946211,0.029033981572808284,0.2369835285992834,0.2570164714007166,0.35471955918877035,2181.5766943785575,3230.017098794142
0.49011764705882355,780.2845480637119,780.1767082659668,0.029900644095905777,0.2372970883557458,0.25670291164425424,0.35471955918877046,2181.0267598649725,3250.2448456579327
0.5003284313725491,780.6079332252549,780.5015343954811,0.030776402535432526,0.23761393902795033,0.25638606097204963,0.3547195591887705,2180.471053602588,3270.3165338650247
0.5105392156862746,780.932850437406,780.8278926046926,0.03166128240930027,0.2379340898483144,0.2560659101516856,0.3547195591887706,2179.9095593991956,3290.235172592613
0.52075,781.259306912969,781.1557902697874,0.03255530999720797,0.23825755032487117,0.2557424496751288,0.35471955918877063,2179.3422605792002,3310.003676623167
0.5309607843137255,781.5873099841758,781.4852348775644,0.033458512325806794,0.2385843302359022,0.2554156697640978,0.3547195591887707,2178.7691399930327,3329.624870502347
0.541171568627451,781.916867103551,781.8162340281535,0.03437091715457361,0.23891443962482642,0.2550855603751736,0.3547195591887708,2178.190180026116,3349.1014924637834
0.5513823529411765,782.2479858443337,782.1487954366845,0.0352925529623459,0.2392478887953285,0.2547521112046715,0.35471955918877085,2177.605362607407,3368.4361981365087
0.5615931372549021,782.5806739006371,782.4829269342939,0.03622344893447576,0.23958468830671112,0.25441531169328885,0.3547195591887709,2177.0146692175495,3387.6315640495886
0.5718039215686276,782.9149390874614,782.8186364687201,0.03716363495056405,0.23992484896945715,0.2540751510305428,0.35471955918877096,2176.4180808966553,3406.6900909473716
0.582014705882353,783.2507893406371,783.1559321046498,0.038113141572739026,0.24026838184098892,0.2537316181590111,0.35471955918877107,2175.815578251744,3425.6142069277234
0.5922254901960785,783.5882327167433,783.4948220239213,0.03907200003444615,0.24061529822161218,0.25338470177838784,0.3547195591887711,2175.2071414638567,3444.406270414701
0.602436274509804,783.9272773930405,783.8353145256523,0.04004024222971836,0.24096560965063424,0.25303439034936576,0.35471955918877124,2174.5927502948625,3463.068572976222
0.6126470588235294,784.2679316674374,784.1774180263384,0.041017900702897986,0.24131932790264535,0.2526806720973547,0.3547195591887713,2173.9723840939814,3481.603341996525
0.6228578431372549,784.6102039585099,784.5211410599507,0.04200500863878329,0.24167646498395365,0.2523235350160464,0.3547195591887714,2173.3460218040364,3500.0127432124755
0.6330686274509804,784.9541028055868,784.866492278051,0.04300159985317452,0.24203703312916455,0.25196296687083547,0.35471955918877146,2172.7136419674525,3518.298883122131
0.6432794117647058,785.2996368689179,785.2134804499449,0.04400770878379559,0.2424010447978965,0.25159895520210346,0.35471955918877157,2172.0752227320195,3536.4638112733487
0.6534901960784314,785.646814929937,785.5621144628749,0.04502337048156914,0.24276851267162416,0.2512314873283759,0.3547195591887716,2171.4307418564235,3554.509522439687
0.6637009803921569,785.9956458916402,785.9124033222726,0.04604862060222381,0.2431394496506417,0.2508605503493583,0.35471955918877174,2170.7801767155775,3572.4379586903215
0.6739117647058823,786.3461387790996,786.264356152075,0.04708349539821431,0.24351386885113982,0.25048613114886015,0.35471955918877185,2170.1235043057445,3590.251011360247
0.6841225490196079,786.6983027401433,786.6179821951172,0.04812803171093499,0.24389178360238836,0.25010821639761166,0.35471955918877196,2169.460701249481,3607.950522926582
0.6943333333333334,787.0521470462347,786.9732908136151,0.04918226696320985,0.24427320744401923,0.24972679255598076,0.354719559188772,2168.7917438004024,3625.538288796412
0.7045441176470588,787.4076810936028,787.3302914897563,0.05024623915204209,0.2446581541234033,0.2493418458765967,0.3547195591887721,2168.11660784778,3643.016059011252
0.7147549019607844,787.7649144046824,787.68899382642,0.051319986841607705,0.24504663759311526,0.24895336240688473,0.35471955918877224,2167.4352689209923,3660.385539872825
0.7249656862745099,788.1238566299462,788.0494075480531,0.052403549156478234,0.2454386720084818,0.2485613279915182,0.35471955918877235,2166.7477021938225,3677.6483954946134
0.7351764705882353,788.4845175502359,788.4115425017416,0.05349696577505927,0.24583427172520758,0.24816572827479244,0.35471955918877246,2166.0538824886203,3694.8062492832764
0.7453872549019609,788.8469070797296,788.7754086585207,0.05460027692323141,0.24623345129707438,0.2477665487029256,0.35471955918877257,2165.3537842803416,3711.8606853538377
0.7555980392156864,789.2110352697291,789.1410161149897,0.055713523368182256,0.24663622547370986,0.24736377452629016,0.3547195591887727,2164.6473817004585,3728.813249882237
0.7658088235294118,789.5769123135053,789.5083750953056,0.05683674641241819,0.24704260919842058,0.24695739080157944,0.3547195591887728,2163.93464854076,3745.665452398669
0.7760196078431374,789.9445485525155,789.8774959536652,0.05796998788794638,0.24745261760608733,0.24654738239391266,0.3547195591887729,2163.2155582570454,3762.4187670249016
0.782826797385621,790.1906218865169,790.1245605204008,0.05873106889519993,0.24772797781715272,0.2462720221828473,0.354719559188773,2162.732619740186,3773.5334181599596
0.7896339869281047,790.437484898291,790.3724159432727,0.05949663403083099,0.24800496039236158,0.2459950396076384,0.35471955918877307,2162.2468358516935,3784.605178177578
0.7964411764705883,790.6851407733753,790.6210653909613,0.060266696074606926,0.24828356995545234,0.24571643004454768,0.3547195591887732,2161.7581984822586,3795.6344591071315
0.8032483660130719,790.9335927338141,790.8705120605439,0.06104126790727759,0.24856381116669884,0.24543618883330115,0.35471955918877324,2161.266699458494,3806.621666726706
0.8100555555555555,791.1828440405321,791.1207591783465,0.06182036250989267,0.2488456887226638,0.24515431127733622,0.35471955918877335,2160.7723305433656,3817.567200699285
0.8168627450980392,791.432897996167,791.3718100009465,0.06260399296313168,0.24912920735595595,0.24487079264404407,0.3547195591887734,2160.275083436623,3828.4714547052135
0.823669934640523,791.6837579484505,791.6236678163541,0.06339217244664663,0.2494143718349925,0.24458562816500753,0.3547195591887735,2159.774949775212,3839.334816571067
0.8304771241830066,791.9354272942546,791.8763359454063,0.06418491423841764,0.24970118696376584,0.24429881303623416,0.3547195591887736,2159.271921133685,3850.157668395065
0.8372843137254903,792.1879094844315,792.1298177434167,0.06498223171412196,0.24998965758161545,0.24401034241838457,0.3547195591887737,2158.765989024602,3860.9403866691596
0.844091503267974,792.4412080296175,792.3841166021296,0.06578413834651657,0.25027978856300426,0.2437202114369957,0.3547195591887738,2158.25714489892,3871.6833423979324
0.8508986928104575,792.695326507196,792.6392359520377,0.06659064770483585,0.250571584817301,0.24342841518269895,0.3547195591887739,2157.7453801463803,3882.3869012144232
0.8577058823529412,792.9502685696594,792.8951792651378,0.06740177345420485,0.25086505128856773,0.2431349487114323,0.35471955918877396,2157.230686095873,3893.051423493026
0.8645130718954248,793.2060379546656,793.1519500582077,0.06821752935506971,0.2511601929553537,0.24283980704464633,0.35471955918877407,2156.7130540158073,3903.6772644595785
0.8713202614379085,793.4626384971386,793.4095518967123,0.06903792926264726,0.25145701483049643,0.24254298516950354,0.3547195591887742,2156.1924751144534,3914.2647742987797
0.8781274509803921,793.7200741438502,793.6679883994623,0.06986298712639587,0.25175552196093026,0.24224447803906973,0.3547195591887743,2155.668940540282,3924.814298259067
0.8849346405228758,793.9783489710012,793.9272632441804,0.07069271698951068,0.2520557194275035,0.24194428057249648,0.3547195591887744,2155.1424413822847,3935.326176755104
0.8917418300653593,794.2374672054436,794.187380174158,0.07152713298844651,0.25235761234480597,0.24164238765519402,0.35471955918877446,2154.612968670274,3945.8007454680146
0.8985490196078431,794.4974332503205,794.4483430062244,0.07236624935247327,0.25266120586100815,0.24133879413899187,0.35471955918877457,2154.080513375169,3956.2383354435356
0.9053562091503267,794.7582517160686,794.7101556403024,0.07321008040326885,0.25296650515771385,0.24103349484228617,0.3547195591887747,2153.545066409252,3966.639273188244
0.9121633986928104,795.0199274579393,794.9728220708747,0.07405864055455705,0.25327351544982923,0.24072648455017082,0.3547195591887748,2153.0066186263957,3977.003880764065
0.9189705882352941,795.2824656214457,795.2363464007619,0.0749119443117978,0.2535822419854506,0.24041775801454937,0.3547195591887749,2152.4651608222653,3987.3324758812537
0.9257777777777778,795.5458716974545,795.5007328576979,0.07577000627194067,0.25389269004577564,0.24010730995422436,0.354719559188775,2151.9206837344705,3997.62537199009
0.9291813725490197,795.677902029195,795.6332507441056,0.0762008261646199,0.25404856130711145,0.23995143869288862,0.35471955918877507,2151.647310048856,4002.7585297270875
0.9325849673202615,795.8101515891187,795.7659858145655,0.07663284112325391,0.25420486494504096,0.239795135054959,0.3547195591887751,2151.3731780426756,4007.882878371569
0.9359885620915034,795.9426211928145,795.89893864224,0.07706605299813142,0.25436160162900157,0.23963839837099846,0.3547195591887752,2151.0982865418428,4012.998455946963
0.9393921568627451,796.0753116926999,796.0321098126191,0.07750046364524425,0.2545187720304936,0.2394812279695064,0.35471955918877524,2150.8226343686506,4018.1053002273434
0.942795751633987,796.2082239815649,796.1654999245629,0.07793607492629118,0.2546763768230825,0.23932362317691755,0.3547195591887753,2150.546220341772,4023.203448740221
0.9461993464052288,796.3413589964812,796.2991095914459,0.0783728887086839,0.2548344166824005,0.2391655833175996,0.35471955918877535,2150.2690432762524,4028.292938769352
0.9496029411764706,796.4747177231123,796.4329394424171,0.07881090686555559,0.2549928922861497,0.23900710771385028,0.35471955918877546,2149.991101983511,4033.3738073575437
0.9530065359477123,796.6083012004676,796.5669901237867,0.07925013127577213,0.2551518043141068,0.2388481956858932,0.3547195591887755,2149.7123952713246,4038.446091309482
0.9564101307189542,796.7421105261473,796.7012623005539,0.0796905638239464,0.2553111534481273,0.2386888465518727,0.35471955918877557,2149.4329219438278,4043.50982719457
0.9598137254901961,796.8761468621286,796.8357566580881,0.08013220640045583,0.2554709403721525,0.23852905962784746,0.3547195591887756,2149.1526808014933,4048.565051349792
0.9632173202614378,797.01041144115,796.9704739039844,0.08057506090146364,0.2556311657722171,0.23836883422778288,0.3547195591887757,2148.8716706411255,4053.6117998826053
0.9666209150326797,797.1449055737558,797.105414770106,0.08101912922894423,0.25579183033645814,0.23820816966354189,0.35471955918877573,2148.5898902558397,4058.650108673866
0.9700245098039215,797.2796306560688,797.2405800148407,0.0814644132907128,0.2559529347551258,0.23804706524487418,0.3547195591887758,2148.3073384350446,4063.680013380795
0.9734281045751634,797.4145881783704,797.375970425589,0.08191091500046019,0.25611447972059637,0.2378855202794036,0.35471955918877585,2148.0240139644225,4068.7015494399952
0.9768316993464052,797.5497797345676,797.5115868215121,0.082358636277793,0.25627646592738623,0.23772353407261376,0.3547195591887759,2147.7399156259,4073.7147520705207
0.9802352941176471,797.6852070326407,797.6474300565684,0.08280757904827982,0.2564388940721689,0.2375611059278311,0.354719559188776,2147.4550421976214,4078.719656277016
0.983638888888889,797.8208719061759,797.7835010228695,0.08325774524350413,0.256601764853794,0.23739823514620598,0.35471955918877607,2147.169392453915,4083.7162968529265
0.9870424836601307,797.9567763270878,797.9198006543936,0.08370913680112464,0.2567650789733094,0.23723492102669058,0.3547195591887761,2146.8829651652522,4088.7047083837974
0.9904460784313726,798.0929224196638,798.0563299310945,0.0841617556649439,0.2569288371339856,0.2370711628660144,0.3547195591887762,2146.5957590982075,4093.684925250667
0.9938496732026144,798.2293124760557,798.1930898834544,0.08461560378498577,0.2570930400413441,0.23690695995865593,0.35471955918877623,2146.3077730154073,4098.656981633575
0.9972532679738562,798.3659489733744,798.3300815975297,0.08507068311758341,0.25725768840318897,0.23674231159681106,0.3547195591887763,2146.019005675474,4103.620911515186
1.000656862745098,798.5028345925432,798.4673062205484,0.08552699562547822,0.25742278292964293,0.23657721707035703,0.3547195591887764,2145.7294558329645,4108.576748684567
1.0040604575163399,798.6399722390927,798.604764967126,0.08598454327793131,0.25758832433318757,0.23641167566681237,0.35471955918877646,2145.439122238298,4113.524526741104
1.0074640522875817,798.7773650660868,798.7424591261711,0.08644332805084892,0.25775431332870863,0.23624568667129137,0.3547195591887765,2145.148003637677,4118.464279098606
1.0108676470588236,798.9150164993921,798.880390068568,0.08690335192692333,0.257920750633547,0.236079249366453,0.35471955918877657,2144.856098772999,4123.396038989601
1.0142712418300655,799.0529302655216,799.018559255729,0.08736461689579102,0.25808763696755604,0.23591236303244395,0.3547195591887766,2144.5634063817533,4128.319839469848
1.0176748366013073,799.1911104223001,799.1569682491275,0.0878271249542099,0.25825497305316564,0.23574502694683433,0.35471955918877673,2144.269925196913,4133.235713423091
1.0210784313725492,799.3295613926206,799.2956187209332,0.0882908781062583,0.2584227596154543,0.2355772403845457,0.3547195591887768,2143.975653946803,4138.14369356608
1.024482026143791,799.4682880015846,799.4345124658915,0.0887558783635578,0.25859099738222957,0.23540900261777042,0.35471955918877685,2143.680591354964,4143.043812453898
1.0278856209150329,799.6072955173355,799.5736514146103,0.0892221277455229,0.2587596870841186,0.2352403129158814,0.35471955918877696,2143.384736139991,4147.936102485596
1.0312892156862747,799.7465896959208,799.7130376484345,0.08968962827964101,0.25892882945466916,0.23507117054533078,0.354719559188777,2143.0880870153555,4152.820595910215
1.0346928104575166,799.8861768305363,799.8526734161252,0.09015838200178589,0.2590984252304635,0.23490157476953646,0.35471955918877707,2142.79064268921,4157.697324833192
1.0380964052287585,800.0260638055305,799.9925611525816,0.09062839095656929,0.25926847515124496,0.234731524848755,0.3547195591887771,2142.4924018641586,4162.566321223215
1.0415,800.1662581555563,800.1327034998852,0.09109965719773522,0.2594389799600612,0.2345610200399388,0.35471955918877723,2142.193363237014,4167.427616919544
1.0449035947712417,800.3067681302872,800.2731033309897,0.09157218278860212,0.2596099404034237,0.23439005959657627,0.3547195591887773,2141.893525498512,4172.281243639894
1.0483071895424836,800.4476027651099,800.4137637764181,0.09204596980255923,0.2597813572314878,0.23421864276851215,0.35471955918877734,2141.592887332999,4177.127232988872
1.0517107843137254,800.5887719582242,800.5546882543945,0.09252102032362405,0.25995323119825403,0.23404676880174594,0.35471955918877746,2141.291447418075,4181.9656164670505
1.0551143790849673,800.7302865545718,800.6958805048918,0.09299733644706894,0.26012556306179496,0.23387443693820503,0.3547195591887775,2140.9892044242015,4186.796425480753
1.0585179738562092,800.8721584370039,800.837344628154,0.09347492028012593,0.2602983535845102,0.23370164641548982,0.35471955918877757,2140.686157014248,4191.619691352565
1.061921568627451,801.0144006250757,800.9790851283273,0.09395377394277991,0.2604716035334133,0.2335283964665867,0.3547195591887777,2140.382303842994,4196.435445332679
1.0653251633986929,801.1570273818094,801.121106962928,0.09443389956866256,0.26064531368045535,0.23335468631954467,0.35471955918877773,2140.077643556559,4201.243718611115
1.0687287581699347,801.3000543287105,801.2634155989779,0.09491529930606003,0.26081948480288936,0.23318051519711067,0.35471955918877784,2139.772174791763,4206.044542330893
1.0721323529411766,801.4434985692308,801.4060170767434,0.0953979753190504,0.26099411768368186,0.23300588231631808,0.3547195591887779,2139.4658961754058,4210.837947602219
1.0755359477124184,801.5873788207563,801.5489180821422,0.09588192978878829,0.26116921311197794,0.23283078688802208,0.35471955918877796,2139.1588063234512,4215.623965517773
1.0789395424836603,801.7317155550469,801.692126029007,0.09636716491495702,0.261344771883626,0.23265522811637399,0.35471955918877807,2138.850903840106,4220.402627169147
1.0823431372549022,801.8765311468561,801.8356491525296,0.09685368291741125,0.2615207948017728,0.23247920519822718,0.3547195591887781,2138.5421873167775,4225.173963664512
1.085746732026144,802.0218500302137,801.9794966153466,0.09734148603803609,0.26169728267753556,0.2323027173224644,0.35471955918877823,2138.2326553308926,4229.9380061475795
1.0891503267973859,802.1676988615576,802.1236786278519,0.09783057654285232,0.26187423633076395,0.23212576366923604,0.3547195591887783,2137.9223064445655,4234.694785817901
1.0925539215686277,802.3141066885275,802.2682065844369,0.09832095672440073,0.26205165659090246,0.2319483434090975,0.3547195591887784,2137.61113920308,4239.444333952561
1.0959575163398696,802.4611051228063,802.4130932174427,0.09881262890444292,0.26222954429796785,0.23177045570203214,0.35471955918877845,2137.299152133178,4244.186681929284
1.0993611111111115,802.6087285148785,802.5583527706398,0.09930559543701947,0.26240790030365546,0.23159209969634456,0.35471955918877857,2136.9863437411213,4248.921861250986
1.102764705882353,802.7570141279894,802.7040011940252,0.09979985871191142,0.26258672547259143,0.2314132745274086,0.3547195591887786,2136.6727125104903,4253.649903571742
1.1061683006535947,802.9060023079221,802.8500563615868,0.10029542115855425,0.2627660206837491,0.2312339793162509,0.35471955918877873,2136.358256899705,4258.370840724139
1.1095718954248366,803.0557366444709,802.9965383134258,0.10079228525045775,0.2629457868320479,0.23105421316795216,0.3547195591887788,2136.042975339217,4263.084704747944
1.1129754901960784,803.2062641196877,803.1434695231936,0.10129045351018814,0.26312602483015585,0.23087397516984415,0.3547195591887789,2135.7268662283495,4267.791527919961
1.1163790849673203,803.3576352371397,803.29087519114,0.10178992851497132,0.26330673561051715,0.23069326438948287,0.35471955918877895,2135.409927931743,4272.491342784929
1.1186481481481483,803.4590445842607,803.3894230369629,0.10212363912105701,0.26342747259127314,0.2305725274087269,0.354719559188779,2135.1981742502985,4275.620675397164
1.120917211328976,803.5608698134615,803.4882034269069,0.10245793247199311,0.2635484204099602,0.23045157959003984,0.35471955918877907,2134.9860507922713,4278.746917609216
1.123186274509804,803.6631286094262,803.587226266839,0.10279280938034797,0.2636695793605668,0.23033042063943315,0.3547195591887791,2134.7735570420527,4281.870079303189
1.1254553376906318,803.7658393934499,803.6865022269668,0.10312827067419202,0.26379094974269013,0.23020905025730987,0.35471955918877923,2134.5606924741965,4284.990170435273
1.12772440087146,803.869021319635,803.7860427916117,0.10346431719825444,0.2639125318619543,0.23008746813804573,0.3547195591887793,2134.3474565526844,4288.107201039987
1.1299934640522877,803.9726942658889,803.8858603095981,0.1038009498151556,0.2640343260304566,0.22996567396954337,0.35471955918877934,2134.1338487301487,4291.221181234324
1.1322625272331155,804.0768788191766,803.9859680446837,0.10413816940671722,0.2641563325672415,0.2298436674327585,0.3547195591887794,2133.919868447035,4294.332121221839
1.1345315904139435,804.1815962544903,804.086380225339,0.10447597687534957,0.2642785517988023,0.2297214482011977,0.35471955918877945,2133.7055151307245,4297.440031296561
1.1368006535947712,804.2868685070159,804.1871120930692,0.10481437314551507,0.2644009840596109,0.22959901594038917,0.3547195591887795,2133.4907881946074,4300.54492184675
1.1390697167755992,804.3927181370093,804.2881799483464,0.10515335916526673,0.26452362969267407,0.22947637030732596,0.35471955918877957,2133.2756870371027,4303.646803358437
1.141338779956427,804.4991682869426,804.3896011930996,0.105492935907857,0.2646464890501161,0.2293535109498839,0.3547195591887796,2133.0602110406403,4306.745686418686
1.143607843137255,804.6062426305425,804.4913943685982,0.10583310437341296,0.2647695624937844,0.22923043750621558,0.3547195591887797,2132.8443595705967,4309.84158171856
1.145876906318083,804.7139653134269,804.5935791874474,0.10617386559067028,0.2648928503958771,0.22910714960412293,0.35471955918877973,2132.6281319741943,4312.934500055717
1.1481459694989107,804.8223608851405,804.6961765583343,0.10651522061875766,0.2650163531395884,0.22898364686041167,0.3547195591887798,2132.411527579372,4316.024452336607
1.1504150326797387,804.9314542225067,804.7992086020863,0.10685717054902114,0.2651400711197688,0.2288599288802312,0.3547195591887799,2132.194545693623,4319.111449578202
1.1526840958605664,805.0412704443504,804.9026986575653,0.10719971650687465,0.26526400474359485,0.22873599525640517,0.35471955918877995,2131.9771856028233,4322.195502909208
1.1549531590413944,805.1518348177865,805.0066712759135,0.10754285965366303,0.2653881544312427,0.22861184556875727,0.35471955918878,2131.7594465700518,4325.276623570739
1.1572222222222222,805.2631726564392,805.1111522017072,0.10788660118851877,0.2655125206165603,0.22848747938343972,0.35471955918878006,2131.5413278344054,4328.3548229163625
1.15949128540305,805.3753092111215,805.216168339656,0.10823094235019444,0.2656371037477301,0.22836289625226996,0.3547195591887801,2131.322828609844,4331.430112411513
1.161760348583878,805.4882695536907,805.3217477056194,0.10857588441884852,0.2657619042879152,0.2282380957120848,0.3547195591887802,2131.1039480840514,4334.5025036322
1.1640294117647059,805.6020784549687,805.42791936091,0.1089214287177615,0.2658869227158805,0.2281130772841195,0.35471955918878023,2130.88468541735,4337.572008263011
1.1662984749455338,805.7167602577983,805.534713329095,0.10926757661495855,0.2660121595265795,0.22798784047342055,0.35471955918878034,2130.665039741668,4340.638638094341
1.1685675381263616,805.8323387464742,805.6421604948116,0.10961432952471123,0.2661376152316976,0.2278623847683024,0.3547195591887804,2130.445010159591,4343.70240501887
1.1708366013071896,805.948837013939,805.7502924844665,0.10996168890889349,0.266263290360143,0.227736709639857,0.35471955918878045,2130.224595743497,4346.763321027245
1.1731056644880173,806.066277328269,805.859141529081,0.11030965627816361,0.266389185458474,0.227610814541526,0.3547195591887805,2130.0037955348075,4349.82139820297
1.1753747276688455,806.1846810000807,805.9687403099704,0.11065823319294738,0.26651530109125493,0.22748469890874506,0.35471955918878056,2129.7826085433667,4352.876648716528
1.1776437908496733,806.30406825256,806.0791217884008,0.11100742126419559,0.26664163784133016,0.22735836215866984,0.3547195591887807,2129.5610337469566,4355.929084818722
1.179912854030501,806.4244580958591,806.1903190208037,0.11135722215389408,0.26676819631000853,0.22723180368999146,0.35471955918878073,2129.339070090976,4358.97871883329
1.182181917211329,806.5458682075985,806.3023649615807,0.11170763757530322,0.26689497711715016,0.22710502288284984,0.3547195591887808,2129.1167164882886,4362.025563148807
1.1844509803921568,806.6683148211723,806.4152922559294,0.11205866929290967,0.2670219809011488,0.22697801909885115,0.35471955918878084,2128.8939718192505,4365.0696302099395
1.1867200435729846,806.7918126234689,806.5291330254896,0.11241031912207543,0.2671492083188052,0.22685079168119485,0.3547195591887809,2128.6708349319383,4368.110932508101
1.1889891067538125,806.916374663493,806.6439186498978,0.11276258892837306,0.26727666004508605,0.22672333995491398,0.354719559188781,2128.4473046425646,4371.14948257157
1.1912581699346403,807.042012273213,806.7596795475703,0.11311548062660087,0.2674043367727682,0.22659566322723176,0.35471955918878106,2128.2233797361096,4374.185292955164
1.193527233115468,807.168735001758,806.8764449591504,0.11346899617947694,0.267532239211966,0.22646776078803404,0.3547195591887811,2127.999058967143,4377.218376229522
1.1957962962962962,807.2965505638671,806.9942427371052,0.11382313759601442,0.2676603680895432,0.2263396319104568,0.35471955918878123,2127.7743410608605,4380.248744970099
1.198065359477124,807.4254648032451,807.113099144886,0.1141779069295871,0.2677887241484134,0.22621127585158657,0.3547195591887813,2127.5492247143084,4383.27641174597
1.200334422657952,807.5554816712213,807.233038668906,0.11453330627569841,0.2679173081467329,0.2260826918532671,0.35471955918878134,2127.3237085978008,4386.30138910851
1.2026034858387797,807.6866032208392,807.3540838463394,0.11488933776947069,0.268046120856992,0.22595387914300802,0.3547195591887814,2127.0977913565093,4389.323689580073
1.2048725490196077,807.8188296162434,807.4762551114067,0.11524600358287787,0.26817516306501393,0.2258248369349861,0.3547195591887815,2126.8714716122245,4392.34332564274
1.2071416122004355,807.9521591569762,807.5995706624105,0.11560330592174611,0.26830443556886985,0.2256955644311301,0.35471955918878156,2126.644747965255,4395.360309727242
1.2094106753812637,808.0865883165574,807.7240463513294,0.11596124702255223,0.2684339391777204,0.22556606082227962,0.3547195591887816,2126.417618996461,4398.374654202131
1.2116797385620914,808.2221117945055,807.8496955972761,0.11631982914904997,0.26856367471059484,0.22543632528940516,0.35471955918878173,2126.1900832693927,4401.386371363296
1.2139488017429194,808.3587225807756,807.9765293246268,0.11667905458875903,0.26869364299512116,0.22530635700487883,0.3547195591887818,2125.962139332522,4404.395473423883
1.2162178649237472,808.4964120314241,808.104555926108,0.117038925649349,0.2688238448662175,0.22517615513378245,0.35471955918878184,2125.7337857215316,4407.401972504696
1.2184869281045752,808.6351699541992,808.2337812506333,0.11739944465495437,0.2689542811647592,0.22504571883524077,0.35471955918878195,2125.50502096166,4410.405880625142
1.220755991285403,808.7749847026569,808.3642086152197,0.11776061394245384,0.26908495273623234,0.22491504726376765,0.354719559188782,2125.2758435700584,4413.407209694764
1.223025054466231,808.915843277358,808.4958388398956,0.11812243585774786,0.26921586042938705,0.22478413957061297,0.35471955918878206,2125.0462520581505,4416.405971505404
1.2252941176470589,809.0577314326744,808.6286703041402,0.11848491275206503,0.26934700509490117,0.2246529949050988,0.3547195591887822,2124.816244933983,4419.402177724038
1.2275631808278868,809.2006337877459,808.7626990230924,0.11884804697832833,0.26947838758406584,0.22452161241593416,0.35471955918878223,2124.585820704523,4422.395839886304
1.2298322440087146,809.3445339401682,808.8979187415251,0.11921184088760665,0.26961000874750096,0.22438999125249895,0.35471955918878234,2124.354977877919,4425.386969390728
1.2321013071895426,809.4894145810514,809.0343210434013,0.11957629682567684,0.26974186943391226,0.22425813056608776,0.3547195591887824,2124.1237149656727,4428.375577493672
1.2355049019607844,809.7085341748829,809.241118445449,0.12012422714623132,0.26994011141772084,0.2240598885822792,0.3547195591887825,2123.7760296945526,4432.853786282176
1.2389084967320263,809.9297551564102,809.4505095275864,0.12067366012267187,0.2701388970646059,0.22386110293539405,0.3547195591887826,2123.4273909238736,4437.326383738555
1.2423120915032682,810.1530111103314,809.6624425842721,0.12122460350847596,0.27033822917978706,0.22366177082021294,0.35471955918878273,2123.0777937337216,4441.79340594158
1.2457156862745098,810.3782338367179,809.876858520009,0.12177706495500686,0.27053811053153853,0.22346188946846154,0.3547195591887829,2122.7272332689786,4446.254888175921
1.2491192810457514,810.6053541022701,810.0936920238744,0.12233105199325713,0.2707385438445842,0.22326145615541576,0.354719559188783,2122.3757047509075,4450.710864925513
1.2525228758169933,810.8343023302447,810.3128727366749,0.12288657201772259,0.2709395317942636,0.22306046820573644,0.3547195591887831,2122.0232034873825,4455.161369873358
1.2559264705882351,811.0650092227578,810.5343263838154,0.12344363227235328,0.2711410770014482,0.2228589229985518,0.35471955918878323,2121.6697248818086,4459.606435907115
1.259330065359477,811.2974063118787,810.7579758519685,0.12400223983846752,0.27134318202816926,0.22265681797183076,0.3547195591887834,2121.315264440785,4464.046095129802
1.261599128540305,811.4532434712929,810.9082564587704,0.1243755079189782,0.27147823096048235,0.22252176903951768,0.35471955918878345,2121.0784098464974,4467.002879665468
1.2638681917211327,811.6097824550055,811.059454262734,0.12474946877002878,0.2716135305381804,0.2223864694618196,0.35471955918878356,2120.8411156596126,4469.957284213246
1.2661372549019607,811.7670041590306,811.2115455417579,0.12512412435713557,0.27174908147239013,0.22225091852760986,0.3547195591887836,2120.603380632925,4472.909317725443
1.2684063180827885,811.9248899055218,811.364506607585,0.12549947660803942,0.27188488446057096,0.22211511553942906,0.35471955918878373,2120.3652035432015,4475.858989011961
1.2706753812636167,812.083421477178,811.5183138995883,0.1258755274119076,0.27202094018622636,0.22197905981377367,0.3547195591887838,2120.126583191684,4478.806306743576
1.2729444444444444,812.2425811462896,811.6729440699595,0.12625227861860644,0.27215724931864055,0.22184275068135945,0.3547195591887839,2119.8875184045537,4481.751279455368
1.2752135076252724,812.4023516987272,811.8283740603952,0.12662973203802824,0.27229381251263535,0.22170618748736468,0.354719559188784,2119.648008033355,4484.693915550315
1.2774825708061002,812.5627164531905,811.9845811704662,0.1270078894394543,0.27243063040833915,0.22156936959166085,0.35471955918878406,2119.408050955404,4487.634223302962
1.2797516339869281,812.7236592760428,812.1415431179275,0.12738675255093598,0.2725677036309635,0.2214322963690365,0.3547195591887842,2119.167646074179,4490.572210863186
1.282020697167756,812.8851645920669,812.2992380912889,0.1277663230586759,0.27270503279057895,0.22129496720942105,0.35471955918878423,2118.9267923197103,4493.507886260005
1.284289760348584,813.047217391471,812.4576447950069,0.12814660260639038,0.27284261848188446,0.22115738151811556,0.35471955918878434,2118.685488648991,4496.441257405421
1.2865588235294119,813.2098032334735,812.6167424877018,0.1285275927946342,0.27298046128396297,0.221019538716037,0.35471955918878445,2118.4437340463987,4499.372332098269
1.2888278867102398,813.3729082467862,812.7765110138221,0.1289092951800691,0.27311856176001714,0.22088143823998288,0.3547195591887845,2118.201527524167,4502.301118028055
1.2910969498910676,813.536519127306,812.9369308291955,0.12929171127465547,0.2732569204570763,0.22074307954292374,0.3547195591887846,2117.9588681228906,4505.227622778769
1.2933660130718956,813.7006231333093,813.0979830209164,0.12967484254474884,0.27339553790566995,0.22060446209433004,0.3547195591887847,2117.715754912105,4508.151853832653
1.2956350762527233,813.8652080784349,813.2596493220183,0.13005869041007903,0.27353441461945854,0.22046558538054148,0.35471955918878484,2117.4721869909304,4511.073818573912
1.2979041394335515,814.0302623227177,813.4219121213715,0.1304432562425933,0.27367355109481445,0.22032644890518552,0.3547195591887849,2117.228163488807,4513.993524292362
1.3001732026143793,814.1957747619257,813.5847544692429,0.13082854136513952,0.2738129478103461,0.2201870521896539,0.354719559188785,2116.983683566332,4516.910978186997
1.302442265795207,814.3617348154321,813.748160078937,0.1312145470499697,0.27395260522635595,0.22004739477364404,0.3547195591887851,2116.7387464162066,4519.826187369471
1.304711328976035,814.528132412838,813.9121133249173,0.13160127451703788,0.2740925237842252,0.21990747621577475,0.3547195591887852,2116.493351264317,4522.739158867484
1.3069803921568628,814.6949579795426,814.0765992377974,0.13198872493207017,0.27423270390571536,0.21976729609428466,0.3547195591887853,2116.2474973709614,4525.64989962807
1.3092494553376905,814.8622024214432,814.2416034965563,0.13237689940438052,0.27437314599217766,0.21962685400782236,0.3547195591887854,2116.001184032232,4528.558416520785
1.3115185185185185,815.029857108929,814.4071124183251,0.13276579898440488,0.27451385042366133,0.2194861495763386,0.3547195591887855,2115.754410581582,4531.464716340784
1.3137875816993463,815.1979138603139,814.5731129460556,0.13315542466092492,0.27465481755790927,0.21934518244209075,0.3547195591887856,2115.507176391586,4534.368805811782
1.316056644880174,815.3663649248448,814.7395926343675,0.13354577735795214,0.27479604772922994,0.21920395227077014,0.3547195591887857,2115.2594808759213,4537.270691588909
1.3183257080610022,815.5352029653984,814.9065396338422,0.13393685793123697,0.2749375412472351,0.21906245875276498,0.35471955918878584,2115.011323491576,4540.17038026145
1.32059477124183,815.7044210409724,815.0739426740117,0.1343286671643694,0.2750792983954287,0.21892070160457122,0.3547195591887859,2114.762703741329,4543.067878355465
1.322863834422658,815.8740125890592,815.2417910452643,0.1347212057644337,0.27522131942963507,0.2187786805703649,0.354719559188786,2114.5136211765057,4545.963192336297
1.3251328976034857,816.0439714079787,815.4100745798717,0.13511447435717375,0.27536360457624914,0.21863639542375085,0.3547195591887861,2114.264075400044,4548.856328610967
1.3274019607843137,816.2142916392357,815.578783632317,0.13550847348162762,0.27550615403029566,0.21849384596970436,0.3547195591887862,2114.014066069901,4551.747293530452
1.3296710239651415,816.3849677499553,815.7479090590869,0.13590320358418076,0.2756489679532774,0.21835103204672254,0.35471955918878634,2113.7635929028265,4554.636093391852
1.3319400871459697,816.5559945154397,815.9174421980667,0.1362986650119878,0.2757920464707957,0.21820795352920436,0.35471955918878645,2113.5126556785362,4557.52273444044
1.3342091503267974,816.7273670018776,816.0873748476673,0.13669485800570436,0.27593538966991976,0.2180646103300802,0.35471955918878656,2113.2612542443235,4560.40722287161
1.3376127450980393,816.9850638353012,816.3430060401321,0.13729051942479018,0.2761509008343289,0.21784909916567108,0.3547195591887867,2112.8832815455667,4564.729932795305
1.341016339869281,817.2435134543476,816.5994943104175,0.13788782701714203,0.2763670075866107,0.21763299241338938,0.3547195591887869,2112.504264279323,4569.047833704086
1.3444199346405228,817.5027023714217,816.8568171621264,0.13848677997658682,0.2765837096350904,0.21741629036490961,0.35471955918878706,2112.124202957142,4573.360945929093
1.3478235294117646,817.7626181486478,817.1149538977,0.13908737670833796,0.27680100640277205,0.217198993597228,0.3547195591887872,2111.7430985909864,4577.669289589961
1.3512271241830065,818.0232492756163,817.3738854610011,0.13968961472845837,0.27701889699096355,0.21698110300903647,0.3547195591887874,2111.3609527570193,4581.972884604659
1.3546307189542484,818.2845850488203,817.6335942819724,0.14029349054836243,0.27723738013748955,0.21676261986251044,0.35471955918878756,2110.9777676688973,4586.271750698206
1.35803431372549,818.5466154522638,817.8940641234962,0.1408989995423026,0.277456454168748,0.21654354583125202,0.3547195591887877,2110.593546261857,4590.565907410308
1.3614379084967319,818.8093310385939,818.1552799303516,0.14150613579550725,0.27767611694476585,0.21632388305523417,0.35471955918878795,2110.2082922890736,4594.855374101925
1.3648415032679737,819.0727228099619,818.4172276799409,0.14211489193032073,0.2778963657962966,0.2161036342037034,0.3547195591887881,2109.822010431986,4599.140169960783
1.3682450980392158,819.336782097688,818.679894234256,0.14272525890734378,0.27811719745287256,0.2158828025471274,0.3547195591887883,2109.4347064264803,4603.420314005826
1.3716486928104574,819.6015004396677,818.9432671923761,0.14333722579817731,0.2783386079605831,0.2156613920394169,0.3547195591887885,2109.046387207094,4607.695825090621
1.3750522875816993,819.8668694543162,819.2073347425965,0.14395077952593796,0.27856059258819277,0.21543940741180717,0.35471955918878867,2108.65706107167,4611.966721905688
1.3784558823529411,820.1328807097111,819.4720855131284,0.1445659045692277,0.2787831457200375,0.21521685427996254,0.35471955918878884,2108.266737869201,4616.233022979727
1.381859477124183,820.3995255864356,819.7375084201332,0.14518258262471903,0.27900626073394663,0.21499373926605336,0.35471955918878906,2107.8754292139315,4620.49474667973
1.3852630718954249,820.6667951324754,820.0035925116902,0.14580079222294254,0.2792299298622352,0.21477007013776483,0.3547195591887892,2107.483148729162,4624.751911209892
1.3886666666666667,820.9346799083545,820.2703268061271,0.1464205082912575,0.27945414403358537,0.21454585596641468,0.35471955918878945,2107.089912324556,4629.004534609298
1.3920702614379086,821.2031698205261,820.5377001229733,0.1470417016573471,0.2796788926934106,0.21432110730658938,0.3547195591887896,2106.6957385111996,4633.252634748284
1.3954738562091504,821.4722539408597,820.8057009046246,0.14766433848592053,0.2799041636000539,0.21409583639994614,0.35471955918878983,2106.300648759034,4637.49622932337
1.3988774509803923,821.7419203098892,821.0743170266314,0.1482883796406506,0.2801299425939351,0.21387005740606485,0.35471955918879006,2105.904667901737,4641.735335850686
1.402281045751634,822.0121557213162,821.3435355943619,0.14891377996275001,0.28035621333653976,0.21364378666346026,0.3547195591887902,2105.5078245944937,4645.969971657729
1.4056846405228758,822.2829454851066,821.6133427236197,0.14954048745703696,0.2805829570159356,0.2134170429840644,0.35471955918879045,2105.110151830476,4650.20015387331
1.4090882352941176,822.554273166387,821.8837233026577,0.15016844237591462,0.28081015201535564,0.21318984798464435,0.35471955918879067,2104.7116875220945,4654.42589941553
1.4124918300653595,822.8261202972608,822.1546607329105,0.1507975761914664,0.2810377735413004,0.21296222645869964,0.3547195591887909,2104.312475153249,4658.64722497757
1.4158954248366014,823.0984660586448,822.4261366456896,0.15142781044594325,0.28126579320764244,0.21273420679235755,0.3547195591887911,2103.9125645087443,4662.8641470111
1.419299019607843,823.3712869293014,822.6981305920788,0.15205905547142437,0.2814941785723982,0.21250582142760177,0.3547195591887913,2103.512012486718,4667.0766817070635
1.4227026143790849,823.6445562994531,822.9706197033507,0.15269120897051894,0.28172289262422356,0.2122771073757764,0.3547195591887915,2103.11088399925,4671.284844973568
1.4261062091503267,823.9182440467582,823.2435783194288,0.15332415445185055,0.2819518932163697,0.21204810678363029,0.3547195591887917,2102.70925296511,4675.4886524106305
1.4295098039215688,824.1923160730584,823.5169775833076,0.15395775951696045,0.2821811324468824,0.2118188675531176,0.354719559188792,2102.3072033967946,4679.688119281473
1.4329133986928104,824.4667338012534,823.7907849999415,0.15459187399946284,0.2824105559853457,0.2115894440146543,0.3547195591887922,2101.904830581312,4683.883260480077
1.4363169934640523,824.7414536329902,824.0649639590113,0.15522632796310487,0.28264010234857717,0.21135989765142282,0.35471955918879244,2101.5022423504975,4688.074090494727
1.4397205882352941,825.0164263696561,824.3394732222166,0.1558609295731631,0.28286970213049595,0.21113029786950405,0.35471955918879267,2101.0995604317036,4692.260623367226
1.443124183006536,825.2915966015511,824.6142663774363,0.1564954628657002,0.2830992771950366,0.21090072280496341,0.3547195591887929,2100.696921863305,4696.442872647586
1.4465277777777779,825.5669020731365,824.8892912642798,0.15712968545191097,0.2833287398455782,0.2106712601544218,0.35471955918879317,2100.2944804513863,4700.620851343981
1.4499313725490197,825.8422730360036,825.1644893783363,0.15776332621032327,0.2835579919899794,0.2104420080100206,0.3547195591887934,2099.8924082341405,4704.794571867856
1.4533349673202616,826.1176316057141,825.4397952648206,0.15839608303802213,0.2837869243269678,0.21021307567303218,0.3547195591887936,2099.490896908816,4708.9640459742095
1.4567385620915034,826.3928911438693,825.7151359163661,0.1590276207530809,0.2840154155872368,0.20998458441276313,0.3547195591887939,2099.0901591627094,4713.129284697194
1.4601421568627453,826.6679556925712,825.9904301943361,0.15965756926334,0.2842433318709069,0.20975666812909308,0.3547195591887941,2098.6904298351565,4717.290298281402
1.463545751633987,826.9427194945764,826.2655882981178,0.16028552214033726,0.28447052613157164,0.20952947386842838,0.3547195591887944,2098.291966822436,4721.44709610942
1.4658148148148147,827.1256714656223,826.4489029205772,0.16070283117279371,0.2846215091441044,0.20937849085589563,0.35471955918879455,2098.027166356669,4724.215956786003
1.4680838779956427,827.3084015730589,826.6320816205043,0.1611189161823736,0.28477204930338706,0.20922795069661296,0.3547195591887947,2097.7631425858763,4726.982949822567
1.4703529411764706,827.4908708734076,826.8150908650338,0.16153362918706302,0.2849220930693126,0.2090779069306874,0.3547195591887949,2097.4999894109865,4729.748077263662
1.4726220043572986,827.673038395646,826.9978952081367,0.16194681507773326,0.28507158432317353,0.2089284156768265,0.35471955918879505,2097.2378052553895,4732.51134093324
1.4748910675381264,827.8548611866286,827.1804572954185,0.16235831189933095,0.2852204644693969,0.20877953553060305,0.3547195591887953,2096.9766928865074,4735.272742424804
1.4771601307189544,828.0362943842812,827.362737889692,0.16276795124663215,0.2853686725787288,0.20863132742127122,0.35471955918879544,2096.716759164673,4738.0322830919185
1.4794291938997821,828.2172913210774,827.5446959197378,0.16317555878320836,0.2855161455759967,0.20848385442400333,0.3547195591887956,2096.4581147138206,4740.789964039256
1.48169825708061,828.3978036599024,827.7262885544795,0.16358095489024216,0.2856628184748523,0.20833718152514774,0.3547195591887958,2096.200873509789,4743.545786114309
1.4839673202614378,828.5777815638519,827.907471304482,0.16398395544919842,0.28580862466094276,0.20819137533905727,0.35471955918879594,2095.9451523836788,4746.299749899979
1.4862363834422656,828.7571739008027,828.0881981522667,0.1643843727591107,0.2859534962237866,0.20804650377621345,0.35471955918879616,2095.6910704397974,4749.051855708204
1.4885054466230938,828.9359284827377,828.26842171238,0.16478201658543346,0.2860973643362495,0.20790263566375047,0.35471955918879633,2095.4387483901173,4751.802103574789
1.4907745098039218,829.1139923388201,828.4480934214902,0.16517669533313623,0.286240159678972,0.20775984032102804,0.3547195591887965,2095.1883078098967,4754.55049325565
1.4930435729847495,829.2913120201317,828.6271637580292,0.16556821733212282,0.28638181290543546,0.20761818709456448,0.3547195591887967,2094.939870322025,4757.297024224611
1.4953126361655773,829.4678339328452,828.805582490037,0.16595639221834305,0.2865222551416509,0.20747774485834908,0.3547195591887969,2094.693556720652,4760.04169567292
1.4975816993464053,829.6435046954566,828.9832989489797,0.16634103238937217,0.28666141851278915,0.20733858148721088,0.3547195591887971,2094.449486047555,4762.784506510599
1.499850762527233,829.8182715146066,829.1602623264014,0.16672195450901295,0.2867992366875484,0.20720076331245157,0.3547195591887973,2094.20777463741,4765.525455369749
1.5021198257080612,829.9920825730534,829.3364219893932,0.1670989810319344,0.2869356454297708,0.20706435457022926,0.3547195591887975,2093.968535150336,4768.26454060987
1.504388888888889,830.164887422556,829.5117278100722,0.16747194171671825,0.2870705831458644,0.2069294168541356,0.35471955918879766,2093.731875611812,4771.001760325226
1.506657952069717,830.3366373738886,829.6861305035885,0.16784067509422698,0.28720399141606145,0.20679600858393854,0.3547195591887979,2093.4978984809236,4773.737112354265
1.5089270152505447,830.5072858759327,829.8595819686792,0.16820502985803565,0.28733581549747816,0.20666418450252183,0.35471955918879805,2093.2666997680826,4776.470594291021
1.5111960784313727,830.6767888758504,830.0320356244946,0.16856486614493021,0.28746600478740103,0.20653399521259894,0.3547195591887983,2093.038368222493,4779.202203498428
1.5134651416122005,830.8451051527221,830.2034467373413,0.1689200566761171,0.2875945132361782,0.20640548676382178,0.35471955918879844,2092.8129846080033,4781.9319371234105
1.5157342047930287,831.0121966177223,830.3737727311585,0.16927048773373313,0.287721299700522,0.20627870029947798,0.35471955918879866,2092.5906210834723,4784.65979211356
1.5180032679738564,831.1780285748896,830.5429734759321,0.16961605995227358,0.28784632822984885,0.20615367177015118,0.3547195591887989,2092.37134070057,4787.385765235231
1.5202723311546844,831.3425699377435,830.7110115488592,0.16995668891041843,0.2879695682804028,0.2060304317195972,0.35471955918879905,2092.155197028243,4790.109853092798
1.5225413943355122,831.5057933983765,830.8778524638602,0.17029230551507002,0.28809099485420114,0.20590900514579882,0.35471955918879927,2091.9422339090233,4792.832052148832
1.52481045751634,831.6676755470977,831.0434648659503,0.1706228561759116,0.2882105885621895,0.20578941143781043,0.3547195591887995,2091.7324853482623,4795.55235874494
1.5270795206971677,831.8281969421695,831.2078206880019,0.17094830277504683,0.28832833561325794,0.2056716643867421,0.35471955918879966,2091.5259755333996,4798.270769122998
1.5293485838779957,831.9873421305742,831.3708952684606,0.1712686224420421,0.2884442277328502,0.20555577226714977,0.3547195591887999,2091.3227189767053,4800.987279446516
1.5316176470588236,832.1450996220202,831.532667429622,0.17158380714963542,0.2885582620166915,0.2054417379833085,0.3547195591888001,2091.122720771821,4803.701885821875
1.5338867102396516,832.3014618194758,831.6931195170422,0.171893863149362,0.28867044072659614,0.20532955927340382,0.3547195591888003,2090.925976951881,4806.414584319206
1.5361557734204794,832.4564249104021,831.8522374015384,0.17219881026926176,0.28878077103637784,0.20521922896362216,0.35471955918880055,2090.732474935142,4809.125370992703
1.5384248366013074,832.6099887234874,832.0100104459918,0.1724986810976029,0.28888926473651916,0.20511073526348084,0.35471955918880077,2090.542194042953,4811.83424190016
1.5406938997821351,832.7621565560978,832.1664314397792,0.1727935200773174,0.2889959379065373,0.2050040620934627,0.354719559188801,2090.355106074367,4814.541193121583
1.542962962962963,832.9129349778353,832.3214965041259,0.17308338253557073,0.2891008105638809,0.20489918943611912,0.3547195591888012,2090.171175921929,4817.246220776748
1.5452320261437908,833.0623336155846,832.4752049719906,0.17336833367185825,0.2892039062978218,0.2047960937021782,0.35471955918880144,2089.990362213763,4819.949321041581
1.5475010893246186,833.2103649252308,832.6275592462647,0.17364844752626565,0.2893052518961703,0.20469474810382965,0.35471955918880166,2089.8126179682617,4822.650490163308
1.5497701525054468,833.357043954918,832.7785646401217,0.1739238059473491,0.2894048769718527,0.20459512302814734,0.3547195591888019,2089.637891249009,4825.349724474306
1.5520392156862748,833.5023881042796,832.928229203282,0.17419449757655753,0.2895028135954734,0.20449718640452655,0.3547195591888021,2089.466125809207,4828.047020404636
1.5543082788671025,833.6464168835868,833.0765635378094,0.1744606168634581,0.2895990959390229,0.2044009040609771,0.3547195591888023,2089.297261716556,4830.742374493263
1.5565773420479303,833.789151676228,833.2235806068267,0.1747222631233265,0.28969375993491164,0.20430624006508835,0.35471955918880255,2089.131235951258,4833.435783397972
1.5588464052287583,833.9306155073858,833.3692955392545,0.17497953964606297,0.28978684295357526,0.20421315704642468,0.35471955918880277,2088.967982971445,4836.12724390401
1.561115468409586,834.0708328212542,833.5137254333723,0.1752325528629669,0.2898783835020121,0.20412161649798788,0.354719559188803,2088.8074352418967,4838.816752931506
1.5633845315904142,834.2098292686319,833.656889161657,0.17548141157569763,0.2899684209448201,0.2040315790551799,0.3547195591888032,2088.6495237232953,4841.504307541726
1.565653594771242,834.3476315062684,833.798807179027,0.17572622624985273,0.29005699524861245,0.20394300475138752,0.35471955918880343,2088.494178320486,4844.189904942218
1.56792265795207,834.4842670089151,833.9395013362763,0.1759671083738808,0.2901441467500715,0.20385585324992853,0.3547195591888037,2088.341328289271,4846.873542490935
1.5701917211328977,834.6197638946736,834.0789947001689,0.17620416988273266,0.2902299159474245,0.2037700840525755,0.35471955918880393,2088.190902602126,4849.555217699385
1.5724607843137257,834.7541507639206,834.2173113813665,0.17643752264452894,0.2903143433147196,0.20368565668528038,0.35471955918880416,2088.042830273933,4852.234928234906
1.5747298474945535,834.8874565518191,834.3544763710796,0.17666727800767756,0.29039746913797215,0.20360253086202781,0.3547195591888044,2087.8970406493568,4854.912671922133
1.5769989106753817,835.01971039422,834.4905153870957,0.17689354640524885,0.290479333372027,0.20352066662797297,0.35471955918880466,2087.753463653881,4857.588446743719
1.5792679738562094,835.1509415065709,834.6254547296014,0.17711643701294863,0.2905599755168127,0.20344002448318732,0.3547195591888049,2087.6120300108405,4860.262250840408
1.5815370370370374,835.2811790753339,834.7593211470415,0.17733605745681474,0.2906394345115855,0.2033605654884145,0.35471955918880516,2087.472671426903,4862.934082510506
1.5838061002178652,835.4104521613106,834.8921417120803,0.1775525135666109,0.2907177486457074,0.2032822513542926,0.3547195591888054,2087.335320748547,4865.603940208835
1.586075163398693,835.5387896141915,835.0239437075933,0.17776590917082064,0.2907949554844741,0.20320504451552587,0.3547195591888056,2087.19991209215,4868.271822545213
1.5883442265795207,835.6662199976234,835.1547545225071,0.1779763459292924,0.29087109180856613,0.20312890819143387,0.3547195591888059,2087.066380950181,4870.937728282534
1.5906132897603487,835.7927715240562,835.2846015572079,0.1781839231996755,0.2909461935657249,0.20305380643427512,0.3547195591888061,2086.934664275954,4873.601656334509
1.5928823529411766,835.918471998626,835.4135121381681,0.17838873793398438,0.29102029583332967,0.20297970416667035,0.3547195591888064,2086.8047005492613,4876.263605763086
1.5962859477124185,836.105486681985,835.6051815486074,0.17869098623979943,0.2911296497082653,0.20287035029173467,0.35471955918880677,2086.6129110457223,4880.252818292234
1.5996895424836604,836.2907381012477,835.7948957654156,0.17898753890424965,0.29123694289190344,0.20276305710809656,0.35471955918880715,2086.424735670729,4884.237575090852
1.6019586056644881,836.4133027543685,835.9203298102278,0.17918222268665407,0.2913073797664316,0.20269262023356838,0.3547195591888074,2086.3012004672028,4886.891603507177
1.604227668845316,836.5351478493023,836.0449605277273,0.1793745906818075,0.2913769787857773,0.20262302121422265,0.35471955918880765,2086.1791347299354,4889.543650728057
1.6064967320261438,836.6562979852333,836.1688134687387,0.17956472451796948,0.29144576948316314,0.20255423051683688,0.35471955918880793,2086.0584866622976,4892.193716639483
1.6087657952069716,836.7767771556789,836.2919137327593,0.17975270327772952,0.29151378047078447,0.20248621952921558,0.35471955918880815,2085.9392060829973,4894.841801252705
1.6110348583877998,836.8966087405208,836.4142859396538,0.17993860353168162,0.29158103945199315,0.20241896054800687,0.35471955918880843,2085.8212444047113,4897.487904700618
1.6133039215686276,837.0158155015542,836.5359542063136,0.1801224993797874,0.2916475732362627,0.2023524267637373,0.3547195591888087,2085.704554607837,4900.132027234121
1.6155729847494555,837.1344195811337,836.6569421278366,0.1803044624990451,0.29171340775643495,0.20228659224356507,0.35471955918880893,2085.589091210249,4902.7741692184945
1.6178420479302833,837.2524425035207,836.777272762809,0.18048456219622405,0.29177856808779934,0.20222143191220066,0.3547195591888092,2085.4748102338303,4905.4143311297785
1.620111111111111,837.3699051785793,836.8969686222858,0.18066286546456992,0.2918430784686093,0.20215692153139067,0.3547195591888095,2085.361669168496,4908.052513551201
1.622380174291939,837.4868279074988,837.0160516620998,0.18083943704357103,0.29190696232170554,0.20209303767829448,0.35471955918880976,2085.2496269342664,4910.688717169634
1.6246492374727672,837.603230390251,837.1345432781462,0.18101433948095175,0.2919702422769453,0.20202975772305476,0.35471955918881004,2085.13864384193,4913.3229427721035
1.626918300653595,837.719131734521,837.2524643043159,0.1811876331961965,0.2920329401941855,0.2019670598058145,0.3547195591888103,2085.028681552734,4915.9551912423585
1.6291873638344228,837.8345504658762,837.3698350127768,0.1813593765450098,0.29209507718660466,0.20190492281339528,0.3547195591888106,2084.919703037482,4918.585463557511
1.6314564270152507,837.9495045389561,837.4866751163174,0.18152962588417035,0.29215667364416703,0.20184332635583296,0.3547195591888109,2084.811672535385,4921.213760784738
1.6337254901960785,838.0640113495102,837.6030037725051,0.18169843563639484,0.29221774925709026,0.20178225074290976,0.35471955918881115,2084.7045555128943,4923.840084078062
1.6359945533769062,838.1780877470974,837.7188395894126,0.1818658583547897,0.29227832303916434,0.2017216769608356,0.35471955918881143,2084.5983186228136,4926.464434675214
1.6382636165577342,838.2917500483208,837.8342006327066,0.18203194478665677,0.29233841335083677,0.2016615866491632,0.3547195591888117,2084.492929663804,4929.086813894567
1.640532679738562,838.4050140504457,837.9491044338948,0.1821967439363132,0.29239803792194036,0.20160196207805958,0.354719559188812,2084.388357540526,4931.707223132163
1.6428017429193897,838.5178950452986,838.0635679995564,0.18236030312678525,0.2924572138740147,0.20154278612598536,0.35471955918881226,2084.284572224492,4934.32566385882
1.645070806100218,838.6304078333453,838.177607821397,0.18252266806019643,0.29251595774215405,0.20148404225784594,0.35471955918881254,2084.1815447157455,4936.9421376173195
1.647339869281046,838.7425667378616,838.2912398869813,0.18268388287672715,0.2925742854963399,0.20142571450366015,0.3547195591888128,2084.0792470054503,4939.556646019684
1.6496089324618737,838.8543856191112,838.4044796910105,0.18284399021200354,0.29263221256220334,0.20136778743779668,0.3547195591888131,2083.977652039475,4942.169190744539
1.6518779956427014,838.9658778884766,838.5173422470339,0.18300303125289666,0.2926897538412141,0.2013102461587859,0.35471955918881337,2083.8767336829833,4944.779773534554
1.6541470588235294,839.0770565224797,838.6298420994852,0.18316104579165043,0.2927469237302637,0.20125307626973635,0.3547195591888137,2083.7764666860926,4947.388396193973
1.6564161220043572,839.1879340766475,838.7419933359556,0.18331807227830596,0.29280373614063265,0.20119626385936737,0.354719559188814,2083.676826650603,4949.9950605862205
1.6586851851851854,839.2985226991788,838.8538095996176,0.1834741478714107,0.29286020451633726,0.2011397954836627,0.35471955918881426,2083.577789997824,4952.599768631596
1.6609542483660131,839.4088341443778,838.9653041017305,0.18362930848699024,0.29291634185184773,0.2010836581481523,0.35471955918881454,2083.479333937498,4955.202522305032
1.663223311546841,839.5188797858341,839.0764896341652,0.18378358884583385,0.29297216070919574,0.20102783929080428,0.35471955918881487,2083.3814364377963,4957.803323633958
1.6654923747276689,839.6286706293116,839.1873785818899,0.18393702251903943,0.29302767323445333,0.2009723267655467,0.35471955918881515,2083.2840761964185,4960.402174696204
1.6677614379084968,839.7382173253485,839.2979829353742,0.18408964197193997,0.2930828911736248,0.20091710882637515,0.3547195591888155,2083.1872326127195,4962.999077618009
1.6700305010893246,839.8475301815305,839.408314302865,0.1842414786063291,0.29313782588792486,0.2008621741120751,0.35471955918881576,2083.090885760915,4965.594034572078
1.6722995642701528,839.956619174443,839.5183839225007,0.1843925628010976,0.29319248836847994,0.20080751163152002,0.35471955918881604,2082.9950163642975,4968.187047775727
1.6745686274509806,840.0654939612882,839.6282026742364,0.1845429239512948,0.29324688925046166,0.2007531107495383,0.35471955918881637,2082.8996057704485,4970.778119489082
1.6768376906318085,840.1741638911693,839.7377810915549,0.1846925905056831,0.2933010388266734,0.2006989611733266,0.35471955918881665,2082.8046359274085,4973.367252013354
1.6791067538126363,840.2826380160194,839.8471293729353,0.1848415900027502,0.29335494706057985,0.20064505293942012,0.354719559188817,2082.7100893608267,4975.954447689166
1.681375816993464,840.390925101206,839.9562573930767,0.1849899491053539,0.29340862359884173,0.20059137640115826,0.35471955918881726,2082.6159491519766,4978.539708894952
1.683644880174292,840.4990336357788,840.0651747138477,0.1851376936339072,0.29346207778332173,0.20053792221667827,0.3547195591888176,2082.5221989167017,4981.1230380454135
1.6859139433551202,840.6069718423889,840.1738905949626,0.1852848485982604,0.29351531866262,0.20048468133738,0.3547195591888179,2082.4288227851785,4983.704437590026
1.688183006535948,840.7147476868676,840.2824140043713,0.1854314382282573,0.2935683550031291,0.20043164499687088,0.3547195591888182,2082.3358053825327,4986.283910011611
1.6904520697167758,840.8223688874815,840.3907536283613,0.1855774860030752,0.2936211952996494,0.20037880470035058,0.35471955918881853,2082.2431318102203,4988.861457824953
1.6927211328976037,840.929842923855,840.4989178813612,0.18572301467930968,0.29367384778555017,0.20032615221444983,0.35471955918881887,2082.150787628206,4991.437083575476
1.6949901960784315,841.0371770455819,840.6069149154522,0.18586804631793946,0.2937263204425255,0.20027367955747452,0.35471955918881914,2082.058758837854,4994.010789837962
1.6972592592592592,841.1443782805277,840.7147526295862,0.1860126023101823,0.29377862100994884,0.20022137899005113,0.3547195591888195,2081.9670318655185,4996.582579215323
1.6995283224400872,841.251453442821,840.8224386785037,0.1861567034022431,0.2938307569938273,0.2001692430061727,0.3547195591888198,2081.875593546845,4999.152454337415
1.701797385620915,841.35840914056,840.9299804813671,0.1863003697190864,0.2938827356754022,0.2001172643245978,0.35471955918882014,2081.7844311116805,5001.7204178599
1.7040664488017427,841.4652517832216,841.0373852300999,0.186443620787174,0.2939345641193757,0.20006543588062434,0.3547195591888205,2081.693532169647,5004.286472463147
1.706335511982571,841.5719875888028,841.144659897447,0.18658647555631222,0.2939862491818151,0.2000137508181849,0.35471955918882075,2081.6028846962818,5006.850620851179
1.708604575163399,841.678622590685,841.2518112447545,0.18672895242056048,0.2940377975177178,0.19996220248228216,0.3547195591888211,2081.512477019765,5009.412865750653
1.7108736383442267,841.7851626442397,841.3588458294757,0.18687106923828986,0.2940892155882684,0.19991078441173163,0.3547195591888214,2081.422297808195,5011.973209909883
1.7131427015250544,841.8916134331829,841.4657700124114,0.18701284335141913,0.2941405096677981,0.19985949033220188,0.35471955918882175,2081.3323360573813,5014.531656097896
1.7154117647058824,841.9979804756805,841.5725899646892,0.18715429160384048,0.29419168585045163,0.19980831414954836,0.3547195591888221,2081.242581079152,5017.08820710353
1.7176808278867102,842.1042691302238,841.6793116744883,0.187295430359107,0.2942427500565861,0.19975724994341387,0.3547195591888224,2081.1530224901308,5019.642865734553
1.7199498910675384,842.2104846012718,841.7859409535183,0.18743627551737874,0.29429370803890254,0.19970629196109743,0.35471955918882275,2081.063650200987,5022.195634816828
1.7222189542483661,842.3166319446838,841.89248344326,0.18757684253170717,0.2943445653883373,0.19965543461166263,0.3547195591888231,2080.974454406095,5024.7465171934955
1.724488017429194,842.4227160729288,841.9989446209695,0.1877171464236143,0.2943953275396989,0.19960467246030114,0.3547195591888234,2080.885425573656,5027.295515724202
1.7267570806100219,842.5287417601032,842.1053298054624,0.18785720179807547,0.29444599977708835,0.1995540002229116,0.3547195591888238,2080.796554436187,5029.842633284343
1.7290261437908498,842.6347136467436,842.2116441626747,0.18799702285786538,0.2944965872390904,0.1995034127609096,0.35471955918882414,2080.707831981419,5032.3878727643405
1.7312952069716776,842.7406362444601,842.3178927110176,0.18813662341735715,0.2945470949237651,0.19945290507623492,0.3547195591888245,2080.61924944354,5034.931237068942
1.7335642701525058,842.8465139403829,842.4240803265271,0.18827601691574164,0.2945975276934311,0.19940247230656888,0.3547195591888248,2080.530798294808,5037.472729116552
1.7358333333333336,842.9523510014388,842.530211747816,0.18841521642973091,0.29464789027926197,0.19935210972073802,0.35471955918882514,2080.442470237489,5040.0123518385835
1.7381023965141615,843.0581515784615,842.6362915808392,0.18855423468576032,0.2946981872857003,0.19930181271429967,0.35471955918882553,2080.354257196113,5042.550108178832
1.7403714596949893,843.1639197101385,842.7423243034742,0.18869308407168767,0.29474842319469113,0.1992515768053089,0.35471955918882586,2080.266151310054,5045.086001092873
1.742640522875817,843.269659326809,842.8483142699283,0.1888317766480545,0.2947986023697557,0.1992013976302443,0.3547195591888262,2080.1781449263817,5047.620033547484
1.744909586056645,843.3753742541129,842.9542657149743,0.18897032415889436,0.2948487290599025,0.1991512709400975,0.3547195591888266,2080.090230593003,5050.152208520085
1.7471786492374732,843.4810682164954,843.060182758024,0.189108738042107,0.2948988074033801,0.19910119259661993,0.3547195591888269,2080.002401052081,5052.682528998196
1.749447712418301,843.5867448405854,843.1660694070486,0.18924702943946706,0.29494884143129885,0.19905115856870118,0.3547195591888273,2079.9146492336827,5055.2109979789175
1.7517167755991288,843.6924076584312,843.2719295623427,0.18938520920619478,0.29499883507109304,0.19900116492890696,0.35471955918882764,2079.8269682497034,5057.737618468428
1.7539858387799567,843.7980601106246,843.37776702015,0.18952328792020642,0.2950487921498682,0.19895120785013184,0.354719559188828,2079.739351388004,5060.262393481506
1.7562549019607845,843.903705549298,843.4835854761467,0.18966127589098722,0.29509871639761087,0.19890128360238915,0.35471955918882836,2079.6517921067734,5062.78532604105
1.7585239651416122,844.0093472410035,843.5893885287895,0.1897991831681016,0.29514861145026816,0.1988513885497318,0.35471955918882875,2079.5642840291325,5065.306419177641
1.7607930283224402,844.114988369498,843.6951796825438,0.18993701954945794,0.29519848085273753,0.19880151914726246,0.3547195591888291,2079.4768209378885,5067.8256759291
1.763062091503268,844.2206320384048,843.800962350979,0.19007479458917564,0.29524832806171314,0.19875167193828686,0.35471955918882947,2079.389396770543,5070.343099340066
1.7653311546840957,844.3262812737885,843.9067398597543,0.19021251760522173,0.29529815644844903,0.19870184355155102,0.35471955918882986,2079.302005614447,5072.8586924616
1.767600217864924,844.4319390266273,844.0125154494881,0.19035019768674172,0.29534796930141116,0.1986520306985889,0.3547195591888302,2079.214641702147,5075.372458350783
1.769869281045752,844.5376081751923,844.118292278517,0.1904878437011014,0.29539776982882526,0.19860223017117476,0.3547195591888306,2079.1272994069213,5077.884400070344
1.7721383442265797,844.6432915273436,844.2240734255565,0.1906254643007192,0.29544756116114895,0.19855243883885107,0.35471955918883097,2079.039973238438,5080.394520688293
1.7744074074074074,844.7489918227386,844.3298618922581,0.19076306792960873,0.29549734635343855,0.19850265364656144,0.35471955918883136,2078.952657838609,5082.90282327757
1.7766764705882354,844.8547117349602,844.4356606056726,0.19090066282971335,0.2955471283876412,0.1984528716123588,0.3547195591888317,2078.8653479775685,5085.409310915707
1.7789455337690632,844.9604538735729,844.5414724206255,0.19103825704702368,0.2955969101748078,0.1984030898251922,0.3547195591888321,2078.77803854979,5087.913986684489
1.7812145969498914,845.0662207861034,844.6473001220024,0.19117585843747972,0.29564669455722903,0.19835330544277105,0.35471955918883247,2078.6907245703433,5090.41685366965
1.7834836601307191,845.1720149599627,844.7531464269604,0.19131347467272192,0.29569648431051526,0.19830351568948476,0.35471955918883286,2078.603401171243,5092.917914960554
1.7857527233115469,845.2778388243028,844.8590139870598,0.19145111324565653,0.29574628214561105,0.198253717854389,0.35471955918883324,2078.5160635979205,5095.417173649909
1.7880217864923749,845.3836947518329,844.9649053903335,0.19158878147593814,0.2957960907107779,0.19820390928922213,0.35471955918883363,2078.42870720574,5097.914632833475
1.7902908496732026,845.4895850606069,845.0708231633034,0.19172648651542434,0.2958459125935683,0.19815408740643173,0.354719559188834,2078.341327456541,5100.410295609782
1.7925599128540304,845.5955120158014,845.1767697729592,0.19186423535367655,0.29589575032281573,0.19810424967718432,0.3547195591888344,2078.253919915149,5102.904165079881
1.7948289760348584,845.7014778315342,845.282747628728,0.19200203482372838,0.29594560637072154,0.19805439362927843,0.3547195591888348,2078.166480245709,5105.396244347066
1.7970980392156861,845.8074846727935,845.3887590844824,0.19213989160842687,0.2959954831551496,0.19800451684485038,0.35471955918883524,2078.0790042076696,5107.886536516642
1.7993671023965139,845.9135346575861,845.4948064406574,0.1922778122478184,0.29604538304229816,0.19795461695770186,0.35471955918883563,2077.991487651091,5110.375044695685
1.801636165577342,846.0196298595157,845.600891946603,0.19241580314851667,0.29609530835008924,0.19790469164991079,0.354719559188836,2077.9039265107026,5112.861771992813
1.8039052287581698,846.1257723111324,845.7070178033925,0.19255387059654755,0.29614526135281616,0.19785473864718386,0.3547195591888364,2077.8163167977505,5115.346721517985
1.8061742919389978,846.2319640086025,845.8131861674274,0.1926920207760933,0.296195244287925,0.197804755712075,0.3547195591888368,2077.7286545881066,5117.829896382308
1.8084433551198256,846.3382069187271,845.9193991554761,0.1928302597986796,0.29624525936657464,0.19775474063342535,0.35471955918883724,2077.6409360037464,5120.3112996978725
1.8107124183006535,846.4445029899435,846.0256588521739,0.19296859375000927,0.29629530879058114,0.19770469120941883,0.35471955918883763,2077.55315718303,5122.790934577639
1.8129814814814813,846.5508541702084,846.1319673217823,0.19310702876723346,0.29634539478037475,0.19765460521962527,0.3547195591888381,2077.465314231672,5125.268804135383
1.8152505446623095,846.6572624366237,846.2383266272444,0.1932455711681159,0.29639551962173144,0.19760448037826855,0.35471955918883846,2077.3774031407806,5127.744911485753
1.8175196078431373,846.7637298451351,846.344738861725,0.1933842276688095,0.29644568574456515,0.19755431425543485,0.35471955918883885,2077.2894196486686,5130.219259744507
1.8197886710239652,846.8702586143954,846.4512062014344,0.193523005752401,0.29649589585626746,0.19750410414373257,0.3547195591888393,2077.201359006998,5132.691852029069
1.822057734204793,846.9768512676039,846.5577309946078,0.19366191429312068,0.2965461531675477,0.1974538468324523,0.3547195591888397,2077.113215584688,5135.162691459572
1.824326797385621,847.0835108720376,846.6643159115097,0.19380096461103585,0.2965964617740227,0.19740353822597728,0.35471955918884013,2077.0249821986718,5137.631781160794
1.8265958605664487,847.190241441384,846.7709641963955,0.19394017224333132,0.2966468272970684,0.1973531727029316,0.35471955918884057,2076.936648989939,5140.099124265556
1.828864923747277,847.2970486039294,846.8776800866912,0.19407955988354153,0.29669725794723845,0.19730274205276155,0.35471955918884096,2076.848201558469,5142.564723920544
1.8311339869281047,847.4039406895229,846.9844694976568,0.1942191621544046,0.2967477662510897,0.19725223374891032,0.3547195591888414,2076.759617934652,5145.028583296144
1.8334030501089327,847.5109304327872,847.0913411037841,0.1943590330611983,0.29679837174780976,0.1972016282521902,0.35471955918884185,2076.670863849824,5147.490705602679
1.8356721132897604,847.6180374642864,847.1983079454725,0.19449925682033992,0.29684910490702054,0.19715089509297948,0.35471955918884224,2076.581885865059,5149.951094116302
1.8379411764705882,847.7252914917744,847.3053895522806,0.19463996148104787,0.2969000120571148,0.19709998794288525,0.3547195591888427,2076.49260272764,5152.409752218163
1.840210239651416,847.8327352268896,847.4126141047191,0.19478133085798127,0.29695115970250235,0.19704884029749764,0.3547195591888431,2076.4028977992884,5154.86668344826
1.8424793028322437,847.9404243354217,847.5200191232808,0.19492360224719227,0.2970026336972388,0.19699736630276118,0.35471955918884357,2076.3126205054887,5157.321891567274
1.8447483660130717,848.0484187982933,847.6276474211451,0.19506702451844285,0.2970545240827645,0.19694547591723544,0.354719559188844,2076.2216129277112,5159.775380600946
1.8470174291938994,848.1567499607346,847.7355293172427,0.19521170503282886,0.2971068697024797,0.19689313029752037,0.35471955918884446,2076.1298069407403,5162.227154799965
1.8492864923747276,848.2652546020374,847.8435917828375,0.19535684260008943,0.29715938068458686,0.19684061931541313,0.3547195591888449,2076.0377109341316,5164.677218238861
1.8504210239651415,848.3192649979861,847.8975286965624,0.19542814650527363,0.29718517854078613,0.19681482145921386,0.3547195591888451,2075.992465550411,5165.901609133853
1.8515555555555554,848.3725537331104,847.9510984322969,0.19549600977138043,0.29720973156878255,0.19679026843121747,0.35471955918884535,2075.9494033996407,5167.12557214395
1.8526900871459695,848.4243429453538,848.0038641598102,0.1955568681578327,0.29723175022117126,0.1967682497788287,0.35471955918884557,2075.9107861452194,5168.349105055622
1.8538246187363834,848.4741273500706,848.0555017002567,0.1956085212275348,0.2972504383766234,0.1967495616233766,0.3547195591888458,2075.878010058791,5169.572204016034
1.8549591503267973,848.5222328991068,848.1061084039825,0.19565270562280593,0.29726642435484585,0.19673357564515415,0.354719559188846,2075.849973166374,5170.794864959514
1.8560936819172111,848.5693494625625,848.155993830357,0.19569280305960682,0.2972809316655727,0.19671906833442732,0.35471955918884623,2075.8245296242626,5172.017085148403
1.8583627450980391,848.6623153597485,848.2544304304708,0.1957688795558773,0.2973084562521412,0.1966915437478588,0.3547195591888467,2075.776255826958,5174.460198829748
1.8606318082788669,848.7545658063692,848.3516330236431,0.19584393551210627,0.29733561160584415,0.19666438839415584,0.3547195591888471,2075.7286296060465,5176.9015418891195
1.862900871459695,848.8464035539762,848.4478499168524,0.19591913782929624,0.29736281991315483,0.19663718008684514,0.3547195591888476,2075.6809105128327,5179.341114738782
1.8651699346405228,848.937913438725,848.5432167142343,0.1959946274907424,0.2973901321820338,0.19660986781796624,0.35471955918884807,2075.6330090873744,5181.7789185296
1.8674389978213508,849.0291454188317,848.6378417927826,0.19607040717007154,0.29741754937980286,0.19658245062019714,0.3547195591888485,2075.584923633139,5184.214954697937
1.8697080610021786,849.1201411035158,848.7318198776126,0.19614646652444173,0.297445067764407,0.19655493223559295,0.35471955918884895,2075.536660713105,5186.6492248846835
1.8719771241830065,849.210937627595,848.8252350169548,0.19622279769670917,0.29747268449312025,0.1965273155068798,0.35471955918884945,2075.4882253129654,5189.081730907705
1.8742461873638343,849.3015683824925,848.9181619462956,0.19629939597857918,0.2975003978624746,0.1964996021375254,0.3547195591888499,2075.4396204203354,5191.512474742629
1.8765152505446625,849.3920633440429,849.0106671296379,0.19637625889843474,0.29752820697823557,0.19647179302176443,0.3547195591888504,2075.3908476035617,5193.94145850583
1.8787843137254903,849.4824493628522,849.1028096693414,0.19645338544878954,0.2975561114758931,0.1964438885241069,0.35471955918885084,2075.3419075019383,5196.368684438863
1.8810533769063182,849.5727504516453,849.1946421184904,0.19653077556980916,0.297584111333799,0.196415888666201,0.35471955918885134,2075.292800153432,5198.794154894305
1.883322440087146,849.6629880634432,849.2862112071185,0.19660842981896604,0.2976122067536476,0.1963877932463524,0.3547195591888518,2075.2435252043024,5201.217872322955
1.885591503267974,849.7531813536344,849.3775584904056,0.19668634916116712,0.29764039808454373,0.1963596019154563,0.3547195591888523,2075.1940820422756,5203.639839262343
1.8878605664488017,849.8433474221858,849.4687209263659,0.19676453483504192,0.2976686857746252,0.19633131422537478,0.35471955918885273,2075.144469881387,5206.060058326433
1.89012962962963,849.9335015346277,849.5597313900979,0.19684298826704008,0.2976970703399836,0.1963029296600164,0.35471955918885323,2075.0946878164946,5208.478532196453
1.8923986928104577,850.0236573219586,849.6506191311921,0.19692171101565004,0.2977255523444824,0.1962744476555176,0.35471955918885373,2075.0447348586695,5210.895263612702
1.8946677559912857,850.1138269604548,849.7414101803564,0.19700070473475906,0.2977541323865003,0.1962458676134997,0.35471955918885417,2074.9946099584495,5213.310255367294
1.8969368191721134,850.2040213327556,849.8321277107441,0.19707997114915035,0.2977828110900664,0.19621718890993362,0.35471955918885467,2074.9443120213864,5215.723510297687
1.8992058823529412,850.2942501717746,849.9227923589328,0.19715951203775733,0.29781158909880134,0.19618841090119862,0.35471955918885517,2074.89383991867,5218.135031280948
1.901474945533769,850.3845221890467,850.0134225100119,0.19723932922204668,0.2978404670717145,0.19615953292828545,0.35471955918885567,2074.843192494502,5220.54482122866
1.9037440087145967,850.4748451890221,850.1040345507439,0.19731942455768187,0.2978694456801876,0.19613055431981238,0.35471955918885617,2074.792368571384,5222.952883082412
1.9060130718954247,850.5652261707475,850.194643094345,0.19739979992835702,0.29789852560574387,0.19610147439425618,0.35471955918885667,2074.741366954032,5225.359219809788
1.9082821350762524,850.6556714182864,850.285261180061,0.197480457241194,0.29792770753838266,0.19607229246161728,0.35471955918885717,2074.690186432295,5227.76383440082
1.9105511982570806,850.7461865810734,850.3759004503426,0.1975613984231619,0.29795699217528443,0.19604300782471562,0.35471955918885767,2074.6388257834287,5230.166729864847
1.9128202614379084,850.8367767452795,850.4665713081185,0.1976426254181431,0.2979863802197484,0.19601361978025164,0.35471955918885817,2074.587283773956,5232.567909227714
1.9150893246187364,850.9274464972208,850.5572830564146,0.19772414018465714,0.2980158723803698,0.19598412761963016,0.35471955918885867,2074.535559161113,5234.967375529316
1.9173583877995641,851.0181999796449,850.6480440222725,0.19780594469389137,0.2980454693703273,0.19595453062967275,0.35471955918885917,2074.483650694096,5237.365131821401
1.9196274509803921,851.1090409417149,850.738861666748,0.19788804092808931,0.29807517190679916,0.19592482809320083,0.35471955918885967,2074.431557115088,5239.761181165637
1.9218965141612199,851.1999727833681,850.8297426825303,0.19797043087911537,0.298104980710445,0.19589501928955497,0.35471955918886017,2074.379277160164,5242.155526631896
1.924165577342048,851.2909985947101,850.9206930805917,0.19805311654729646,0.298134896504986,0.195865103495014,0.3547195591888607,2074.3268095600315,5244.548171296729
1.9264346405228758,851.3821211909675,851.0117182670847,0.19813609994037668,0.2981649200168269,0.19583507998317315,0.3547195591888612,2074.2741530406906,5246.939118242031
1.9298382352941177,851.5189921219342,851.1484067952524,0.19826113767196382,0.2982101588492668,0.1957898411507332,0.354719559188862,2074.1948112412388,5250.5223621874675
1.9332418300653595,851.6560943455331,851.2852889259086,0.19838685663949798,0.29825564415385936,0.1957443558461406,0.3547195591888628,2074.1150371683825,5254.1018036357655
1.9366454248366014,851.7934347357375,851.4223771228999,0.19851326368850164,0.2983013784073245,0.19569862159267554,0.35471955918886355,2074.0348264783447,5257.677453023346
1.9400490196078433,851.9310194000708,851.559682162997,0.19864036568436083,0.2983473640935687,0.19565263590643128,0.35471955918886433,2073.9541748147435,5261.249320789844
1.9434526143790851,852.0688538059362,851.6972134136847,0.19876816950888776,0.2983936037024418,0.19560639629755824,0.35471955918886516,2073.8730778107747,5264.817417373366
1.946856209150327,852.2069428862148,851.8349790653433,0.19889668205752867,0.29844009972872604,0.19555990027127398,0.35471955918886594,2073.791531090981,5268.381753206556
1.9502598039215688,852.34529112754,851.9729863253013,0.19902591023712451,0.2984868546713265,0.19551314532867345,0.3547195591888668,2073.709530272677,5271.942338713327
1.9536633986928107,852.483902644078,852.1112415800114,0.19915586096409768,0.29853387103261503,0.195466128967385,0.35471955918886755,2073.6270709670957,5275.499184306177
1.9570669934640526,852.6227812391706,852.2497505305627,0.19928654116288286,0.2985811513178619,0.19541884868213807,0.3547195591888684,2073.5441487803864,5279.052300383955
1.9604705882352942,852.7619304568856,852.3885183059353,0.19941795776480972,0.2986286980348324,0.19537130196516767,0.3547195591888692,2073.460759314324,5282.601697330032
1.9638741830065358,852.9013536250881,852.5275495576319,0.1995501177071718,0.29867651369344916,0.19532348630655083,0.35471955918887005,2073.3768981668977,5286.147385510795
1.9672777777777777,853.0410538914341,852.666848538744,0.19968302793246476,0.2987246008055173,0.1952753991944826,0.3547195591888709,2073.2925609327967,5289.689375274418
1.9706813725490195,853.1810342534728,852.8064191700267,0.1998166953879004,0.29877296188454827,0.19522703811545172,0.3547195591888717,2073.2077432037177,5293.227676949851
1.9740849673202614,853.3212975837837,852.946265095096,0.1999511270249409,0.29882159944559095,0.19517840055440908,0.35471955918887255,2073.12244056866,5296.762300846017
1.9774885620915033,853.4618466509982,853.0863897265488,0.2000863297990115,0.29887051600512826,0.19512948399487173,0.35471955918887343,2073.0366486141074,5300.29325725115
1.9808921568627451,853.6026841373878,853.2267962845073,0.20022231066937532,0.29891971408103185,0.1950802859189682,0.35471955918887427,2072.95036292411,5303.8205564322725
1.984295751633987,853.7438126535504,853.3674878288161,0.200359076599001,0.2989691961925136,0.19503080380748633,0.3547195591888751,2072.863579080365,5307.344208634788
1.9876993464052288,853.8852347507035,853.5084672859499,0.20049663455455338,0.29901896486012325,0.19498103513987677,0.354719559188876,2072.7762926622268,5310.864224082152
1.9911029411764707,854.0269529309595,853.649737471496,0.20063499150642022,0.299069022605757,0.19493097739424303,0.3547195591888769,2072.688499246683,5314.38061297564
1.9945065359477123,854.1689696559249,853.7913011089435,0.20077415442878313,0.29911937195268384,0.19488062804731618,0.35471955918887776,2072.600194408318,5317.893385494153
1.9979101307189542,854.3112873539015,853.9331608453912,0.20091413029976882,0.29917001542560023,0.19482998457439976,0.35471955918887865,2072.5113737192123,5321.402551794107
2.001313725490196,854.4539084259121,854.0753192646747,0.20105492610159378,0.2992209555506821,0.19477904444931785,0.35471955918887954,2072.422032748849,5324.908122009331
2.004717320261438,854.5968352507555,854.2177788983481,0.20119654882078888,0.2992721948556666,0.1947278051443334,0.35471955918888043,2072.332167063974,5328.410106251043
2.0081209150326798,854.7400701892351,854.3605422348619,0.2013390054483822,0.2993237358699177,0.19467626413008235,0.3547195591888813,2072.241772228482,5331.908514607813
2.0115245098039214,854.8836155877153,854.5036117272483,0.20148230298016329,0.29937558112452217,0.19462441887547782,0.3547195591888822,2072.1508438032447,5335.403357145594
2.0149281045751635,855.0274737811013,854.646989799548,0.20162644841691651,0.29942773315237403,0.194572266847626,0.35471955918888315,2072.0593773459627,5338.894643907739
2.0183316993464055,855.1716470953559,854.7906788521991,0.20177144876473038,0.29948019448828617,0.19451980551171386,0.3547195591888841,2071.9673684109744,5342.382384915058
2.021735294117647,855.3161378496092,854.934681266549,0.20191731103526714,0.29953296766908816,0.1944670323309118,0.354719559188885,2071.874812549079,5345.866590165879
2.025138888888889,855.4609483579322,855.0789994086331,0.2020640422460152,0.29958605523371756,0.19441394476628246,0.3547195591888859,2071.7817053073786,5349.3472696361305
2.028542483660131,855.6060809308618,855.223635632361,0.20221164942068254,0.29963945972336203,0.194360540276638,0.35471955918888687,2071.68804222903,5352.824433279422
2.031946078431373,855.7515378766625,855.3685922821803,0.20236013958944013,0.29969318368154757,0.19430681631845245,0.3547195591888878,2071.5938188530895,5356.298091027141
2.0353496732026146,855.8973215024257,855.5138716953294,0.20250951978931003,0.299747229654279,0.19425277034572097,0.35471955918888876,2071.499030714263,5359.768252788555
2.0387532679738563,856.0434341149834,855.6594762037273,0.20265979706443926,0.29980160019013896,0.19419839980986103,0.3547195591888897,2071.4036733427392,5363.234928450926
2.0421568627450983,856.1898780217126,855.8054081355805,0.2028109784664938,0.2998562978404304,0.1941437021595697,0.3547195591888907,2071.3077422639326,5366.698127879614
2.0455604575163404,856.3366555312128,855.951669816736,0.20296307105498138,0.2999113251592933,0.1940886748407067,0.35471955918889164,2071.2112329982833,5370.157860918201
2.048964052287582,856.4837689538917,856.0982635718307,0.20311608189758246,0.29996668470382487,0.19403331529617512,0.35471955918889264,2071.1141410610453,5373.614137388606
2.0523676470588237,856.6312206024853,856.2451917252763,0.2032700180705414,0.3000223790342205,0.19397762096577942,0.35471955918889364,2071.016461962038,5377.066967091217
2.0557712418300653,856.7790127925055,856.3924566020979,0.20342488665901784,0.3000784107139013,0.1939215892860987,0.3547195591888946,2070.9181912054246,5380.516359805006
2.059174836601307,856.927147842636,856.5400605286549,0.20358069475745172,0.30013478230964574,0.19386521769035425,0.3547195591888956,2070.819324289479,5383.9623252876645
2.062578431372549,857.075628075085,856.6880058332644,0.20373744946993522,0.3001914963917248,0.19380850360827515,0.3547195591888966,2070.7198567063483,5387.404873275728
2.065982026143791,857.224455815899,856.8362948467411,0.20389515791058221,0.3002485555340352,0.19375144446596482,0.35471955918889764,2070.619783941825,5390.844013484711
2.0693856209150328,857.3736333952561,856.9849299028751,0.20405382720394044,0.3003059623142485,0.1936940376857515,0.35471955918889864,2070.519101475077,5394.279755609229
2.0727892156862744,857.523163147719,857.1339133388446,0.20421346448533928,0.30036371931393735,0.19363628068606267,0.35471955918889964,2070.417804778431,5397.712109323143
2.0761928104575165,857.6730474124779,857.2832474955875,0.20437407690129558,0.3004218291187218,0.19357817088127818,0.3547195591889007,2070.315889317118,5401.141084279684
2.0795964052287585,857.8232885335776,857.4329347181343,0.2045356716099191,0.3004802943184164,0.1935197056815836,0.35471955918890175,2070.2133505490087,5404.566690111589
2.083,857.9738888601296,857.5829773559093,0.20469825578132414,0.3005391175071789,0.19346088249282115,0.3547195591889028,2070.1101839243593,5407.9889364312385
2.086403594771242,858.1248507464979,857.733377762997,0.20486183659797352,0.30059830128363463,0.19340169871636537,0.35471955918890385,2070.006384885589,5411.407832830783
2.089807189542484,858.2761765524971,857.8841382983966,0.20502642125512655,0.300657848251039,0.19334215174896105,0.3547195591889049,2069.901948866997,5414.823388882289
2.093210784313726,858.4278686435816,858.03526132626,0.20519201696128508,0.30071776101743825,0.19328223898256172,0.35471955918890596,2069.7968712944808,5418.235614137863
2.0966143790849676,858.5799293910098,858.1867492161034,0.2053586309385518,0.3007780421957998,0.1932219578042002,0.354719559188907,2069.6911475853058,5421.644518129795
2.1000179738562093,858.7323611720245,858.3386043430187,0.20552627042309082,0.30083869440417815,0.1931613055958219,0.35471955918890813,2069.584773147816,5425.050110370693
2.1034215686274513,858.8851663700123,858.4908290878654,0.20569494266551697,0.3008997202658563,0.19310027973414373,0.3547195591889092,2069.477743381187,5428.452400353615
2.1068251633986934,859.0383473746797,858.6434258374654,0.20586465493137274,0.300961122409518,0.193038877590482,0.3547195591889103,2069.3700536751185,5431.851397552211
2.110228758169935,859.1919065822076,858.7963969847809,0.20603541450152144,0.30102290346939026,0.19297709653060977,0.3547195591889114,2069.261699409592,5435.247111420853
2.1136323529411767,859.3458463954181,858.9497449290947,0.20620722867260793,0.30108506608540964,0.19291493391459036,0.3547195591889125,2069.152675954573,5438.639551394777
2.1170359477124183,859.5001692239329,859.1034720761824,0.20638010475749166,0.3011476129033793,0.19285238709662064,0.3547195591889136,2069.042978669739,5442.0287268902175
2.12043954248366,859.654877484332,859.2575808384825,0.20655405008568653,0.30121054657512814,0.19278945342487186,0.35471955918891473,2068.9326029042,5445.414647304543
2.123843137254902,859.8099736003205,859.4120736352678,0.2067290720038362,0.3012738697586823,0.1927261302413177,0.3547195591889159,2068.821543996194,5448.797322016395
2.127246732026144,859.9654600028806,859.5669528928087,0.20690517787613744,0.3013375851184189,0.19266241488158106,0.354719559188917,2068.7097972728247,5452.176760385823
2.1306503267973858,860.1213391304362,859.7222210445401,0.20708237508481653,0.3014016953252382,0.19259830467476186,0.3547195591889182,2068.5973580497516,5455.552971754428
2.1340539215686274,860.277613429014,859.8778805312277,0.20726067103059076,0.3014662030567302,0.19253379694326975,0.35471955918891934,2068.484221630903,5458.925965445487
2.1374575163398695,860.4342853524043,860.0339338011305,0.20744007313313317,0.3015311109973436,0.1924688890026564,0.3547195591889205,2068.3703833081786,5462.295750764106
2.1408611111111115,860.5913573623222,860.1903833101667,0.20762058883153583,0.3015964218385525,0.19240357816144746,0.3547195591889217,2068.255838361155,5465.662336997345
2.144264705882353,860.7488319285721,860.3472315220778,0.2078022255847906,0.30166213827903116,0.19233786172096884,0.35471955918892284,2068.140582056782,5469.025733414362
2.147668300653595,860.9067115292139,860.5044809085957,0.20798499087227662,0.3017282630248296,0.19227173697517036,0.35471955918892406,2068.0246096490746,5472.38594926655
2.151071895424837,861.0649986507187,860.6621339496032,0.20816889219419757,0.3017947987895325,0.19220520121046752,0.3547195591889252,2067.9079163788306,5475.742993787676
2.154475490196079,861.2236957881488,860.8201931333076,0.20835393707213068,0.30186174829445733,0.19213825170554266,0.35471955918892645,2067.7904974732874,5479.096876194018
2.1578790849673206,861.3828054453147,860.9786609564031,0.20854013304946611,0.3019291142688136,0.19207088573118639,0.35471955918892767,2067.6723481458403,5482.4476056845
2.1612826797385623,861.5423301349443,861.1375399242384,0.2087274876919032,0.3019968994498823,0.19200310055011768,0.3547195591889289,2067.553463595729,5485.79519144084
2.1646862745098043,861.7022723788588,861.2968325509897,0.20891600858797332,0.30206510658320507,0.1919348934167949,0.3547195591889301,2067.433839007706,5489.139642627681
2.1680898692810464,861.8626347081362,861.4565413598281,0.20910570334950704,0.3021337384227533,0.19186626157724673,0.35471955918893133,2067.3134695517374,5492.480968392729
2.171493464052288,862.0234196632839,861.6166688830887,0.2092965796121357,0.3022027977311093,0.1917972022688907,0.3547195591889326,2067.192350382688,5495.8191778669
2.1748970588235297,862.1846297944169,861.7772176624472,0.20948864503582051,0.3022722872796583,0.19172771272034167,0.3547195591889339,2067.0704766399845,5499.154280164452
2.1783006535947713,862.346267661423,861.9381902490888,0.2096819073053209,0.30234220984875737,0.19165779015124262,0.3547195591889351,2066.947843447318,5502.486284383127
2.181704248366013,862.5083358341423,862.0995892038828,0.20987637413071972,0.3024125682279256,0.1915874317720744,0.3547195591889364,2066.82444591231,5505.815199604295
2.185107843137255,862.6708368925467,862.2614170975615,0.21007205324795197,0.30248336521603547,0.19151663478396452,0.35471955918893766,2066.700279126178,5509.141034893086
2.188511437908497,862.8337734269128,862.4236765108932,0.21026895241929888,0.30255460362149167,0.19144539637850835,0.354719559188939,2066.5753381634227,5512.463799298537
2.1919150326797388,862.9971480379976,862.586370034859,0.21046707943389104,0.3026262862624128,0.1913737137375872,0.35471955918894027,2066.449618081506,5515.783501853729
2.1953186274509804,863.1609633372223,862.7495002708328,0.21066644210824825,0.3026984159668271,0.19130158403317285,0.3547195591889416,2066.323113920512,5519.100151575931
2.1987222222222225,863.3252219468505,862.9130698307605,0.21086704828679184,0.3027709955728577,0.1912290044271423,0.35471955918894293,2066.1958207028183,5522.413757466737
2.2021258169934645,863.4899265001643,863.0770813373366,0.2110689058423395,0.30284402792890125,0.19115597207109875,0.35471955918894427,2066.067733432785,5525.724328512206
2.205529411764706,863.6550796416581,863.2415374241926,0.21127202267668657,0.3029175158938389,0.19108248410616113,0.3547195591889456,2065.9388470963845,5529.031873683016
2.208933006535948,863.8206840272094,863.4064407360727,0.21147640672107249,0.3029914623372045,0.19100853766279552,0.35471955918894693,2065.8091566609055,5532.336401934586
2.21233660130719,863.9867423242698,863.5717939290201,0.21168206593674202,0.3030658701393879,0.1909341298606121,0.35471955918894826,2065.6786570745967,5535.637922207237
2.215740196078432,864.1532572120445,863.73759967056,0.211889008315449,0.30314074219181725,0.19085925780818275,0.35471955918894965,2065.5473432663484,5538.93644342632
2.2191437908496736,864.3202313816815,863.9038606398846,0.21209724188000403,0.3032160813971571,0.1907839186028429,0.35471955918895104,2065.4152101453424,5542.231974502365
2.2225473856209153,864.4876675364588,864.0705795280402,0.21230677468480483,0.3032918906695002,0.1907081093304998,0.3547195591889524,2065.282252600719,5545.524524331226
2.2259509803921573,864.6555683919621,864.2377590381101,0.21251761481633138,0.30336817293454665,0.19063182706545334,0.3547195591889538,2065.14846550126,5548.81410179422
2.2293545751633994,864.8239366762818,864.4054018854036,0.2127297703937165,0.3034449311298105,0.19055506887018944,0.3547195591889552,2065.013843695027,5552.100715758269
2.232758169934641,864.992775130201,864.573510797648,0.21294324956927937,0.3035221682048128,0.19047783179518726,0.35471955918895665,2064.8783820090252,5555.38437507605
2.2361617647058827,865.1620865073772,864.7420885151702,0.2131580605290246,0.30359988712126157,0.1904001128787384,0.3547195591889581,2064.7420752488824,5558.665088586132
2.2395653594771243,865.3318735745371,864.9111377910906,0.21337421149320018,0.30367809085325465,0.19032190914674532,0.3547195591889595,2064.6049181985004,5561.942865113124
2.242968954248366,865.5021391116616,865.0806613915098,0.21359171071680938,0.30375678238746423,0.19024321761253582,0.3547195591889609,2064.4669056197254,5565.217713467823
2.246372549019608,865.6728859121872,865.2506620957054,0.21381056649019425,0.30383596472334784,0.19016403527665215,0.3547195591889624,2064.3280322519795,5568.489642447348
2.2497761437908497,865.8441167831845,865.4211426963161,0.2140307871395099,0.3039156408733207,0.19008435912667931,0.35471955918896386,2064.1882928119608,5571.758660835295
2.2531797385620913,866.0158345455554,865.5921059995369,0.2142523810272881,0.30399581386295876,0.1900041861370412,0.35471955918896536,2064.0476819932846,5575.02477740188
2.2565833333333334,866.1880420342272,865.7635548253121,0.21447535655297828,0.30407648673119514,0.18992351326880488,0.35471955918896686,2063.9061944661403,5578.288000904082
2.2599869281045755,866.3607420983382,865.9354920075242,0.21469972215344932,0.3041576625305011,0.18984233746949894,0.35471955918896836,2063.7638248769726,5581.548340085791
2.263390522875817,866.5339376014355,866.1079203941907,0.21492548630355182,0.3042393443270899,0.18976065567291014,0.35471955918896986,2063.6205678481265,5584.805803677954
2.2667941176470587,866.7076314216685,866.2808428476568,0.215152657516646,0.3043215352011076,0.1896784647988924,0.35471955918897136,2063.476417977509,5588.060400398723
2.270197712418301,866.8818264519784,866.4542622447876,0.2153812443451186,0.3044042382468201,0.1895957617531799,0.3547195591889729,2063.3313698382644,5591.312138953595
2.2736013071895425,867.0565256002952,866.6281814771642,0.21561125538093,0.3044874565728112,0.18951254342718882,0.35471955918897446,2063.1854179784264,5594.561028035571
2.277004901960784,867.2317317897316,866.8026034512785,0.2158426992561444,0.3045711933021741,0.18942880669782589,0.354719559188976,2063.0385569205796,5597.807076325294
2.2804084967320257,867.4074479587779,866.9775310887285,0.21607558464346202,0.3046554515727044,0.1893445484272956,0.3547195591889776,2062.890781161524,5601.050292491197
2.2838120915032674,867.5836770614909,867.1529673264104,0.2163099202567234,0.3047402345370822,0.18925976546291776,0.3547195591889791,2062.742085171955,5604.290685189658
2.2872156862745094,867.7604220676936,867.3289151167168,0.21654571485145946,0.30482554536307127,0.18917445463692872,0.35471955918898074,2062.5924633961126,5607.528263065141
2.2906192810457515,867.9376859631718,867.5053774277335,0.21678297722542697,0.3049113872337128,0.1890886127662872,0.35471955918898235,2062.4419102514426,5610.763034750348
2.294022875816993,868.1154717498619,867.6823572434314,0.21702171621910382,0.30499776334750445,0.18900223665249555,0.35471955918898396,2062.290420128283,5613.995008866368
2.297426470588235,868.2937824460521,867.8598575638657,0.2172619407162359,0.30508467691859836,0.1889153230814017,0.35471955918898557,2062.1379873895175,5617.224194022826
2.300830065359477,868.4726210865792,868.0378814053738,0.2175036596443738,0.3051721311769952,0.18882786882300479,0.35471955918898723,2061.9846063702316,5620.450598818028
2.304233660130719,868.6519907230149,868.2164318007659,0.2177468819753461,0.3052601293687157,0.1887398706312843,0.35471955918898884,2061.830271377415,5623.674231839122
2.3076372549019606,868.8318944238712,868.3955117995276,0.21799161672583017,0.3053486747560067,0.18865132524399333,0.3547195591889905,2061.674976689601,5626.895101662231
2.3110408496732022,869.0123352747883,868.5751244680121,0.21823787295783506,0.3054377706175162,0.18856222938248382,0.3547195591889922,2061.5187165565553,5630.113216852624
2.3144444444444443,869.1933163787339,868.7552728896392,0.21848565977923654,0.30552742024848684,0.18847257975151316,0.3547195591889939,2061.361485198941,5633.328585964849
2.3178480392156864,869.3748408561999,868.9359601650922,0.218734986344294,0.305617626960943,0.18838237303905703,0.35471955918899556,2061.203276807988,5636.541217542891
2.321251633986928,869.5569118453961,869.1171894125149,0.21898586185416177,0.30570839408387557,0.18829160591612443,0.3547195591889973,2061.044085545169,5639.751120120326
2.3246552287581697,869.7395325024473,869.2989637677081,0.21923829555739852,0.3057997249634265,0.18820027503657347,0.354719559188999,2060.883905541878,5642.958302220469
2.3280588235294117,869.9227060015813,869.4812863843233,0.21949229675045354,0.3058916229630647,0.18810837703693534,0.3547195591890007,2060.722730899119,5646.162772356522
2.331462418300654,870.1064355353375,869.6641604340662,0.21974787477822746,0.30598409146378863,0.18801590853621142,0.3547195591890025,2060.560555687153,5649.364539031737
2.3348660130718955,870.29072431475,869.847589106887,0.22000503903452337,0.30607713386428986,0.1879228661357102,0.3547195591890043,2060.3973739452076,5652.563610739557
2.338269607843137,870.4755755695518,870.0315756111821,0.22026379896259238,0.30617075358115037,0.18782924641884963,0.354719559189006,2060.233179681137,5655.759995963775
2.3416732026143787,870.6609925483677,870.2161231739899,0.220524164055622,0.30626495404901916,0.18773504595098078,0.3547195591890078,2060.0679668711055,5658.953703178684
2.3450767973856204,870.8469785189056,870.4012350411854,0.22078614385721756,0.3063597387207865,0.18764026127921352,0.3547195591890096,2059.9017294592873,5662.144740849235
2.3484803921568624,871.0335367681531,870.5869144776768,0.22104974796191168,0.30645511106776807,0.1875448889322319,0.35471955918901144,2059.73446135754,5665.3331174311825
2.3518839869281045,871.2206706025829,870.7731647676092,0.221314986015698,0.3065510745798985,0.1874489254201015,0.35471955918901327,2059.5661564450675,5668.518841371246
2.355287581699346,871.4083833483292,870.9599892145504,0.22158186771644747,0.30664763276588153,0.18735236723411852,0.3547195591890151,2059.3968085681545,5671.7019211072575
2.358691176470588,871.5966783514054,871.1473911416998,0.22185040281449628,0.30674478915340275,0.18725521084659727,0.35471955918901693,2059.226411539796,5674.8823650683225
2.36209477124183,871.7855574419815,871.3353730873602,0.22212059407321044,0.3068425447422521,0.1871574552577479,0.3547195591890188,2059.054963606516,5678.060181675024
2.365498366013072,871.9750176726197,871.5239343931689,0.22239242425890288,0.3069408932972566,0.18705910670274337,0.3547195591890207,2058.8824757038296,5681.235379302957
2.3689019607843136,872.1650702425158,871.7130823373861,0.22266593952120728,0.3070398515154207,0.18696014848457929,0.3547195591890226,2058.7089185478144,5684.407966337275
2.3723055555555552,872.3557186790048,871.9028205813203,0.22294114971846982,0.3071394229635082,0.18686057703649184,0.35471955918902454,2058.5342858829285,5687.577951173706
2.3757091503267973,872.5469665086121,872.0931527575394,0.22321806476897307,0.3072396112299681,0.18676038877003187,0.3547195591890264,2058.3585714155965,5690.745342200546
2.3791127450980394,872.7388172611752,872.2840824787918,0.22349669465112573,0.3073404199250032,0.18665958007499678,0.35471955918902837,2058.18176881409,5693.910147798689
2.382516339869281,872.9312744732836,872.4756133454146,0.2237770494036783,0.3074418526806479,0.18655814731935208,0.3547195591890303,2058.003871708391,5697.072376341691
2.3859199346405227,873.1243416911512,872.6677489514954,0.22405913912596057,0.30754391315085444,0.18645608684914558,0.3547195591890323,2057.824873690044,5700.232036195849
2.3893235294117647,873.3180224730216,872.8604928899947,0.22434297397813693,0.3076466050115849,0.18635339498841508,0.3547195591890343,2057.6447683119873,5703.389135720301
2.392727124183007,873.5123203911844,873.053848757013,0.224628564181477,0.30774993196090955,0.18625006803909047,0.3547195591890363,2057.463549088388,5706.543683267117
2.3961307189542485,873.7072390336714,873.2478201553496,0.22491592001863928,0.307853897719109,0.18614610228089096,0.3547195591890383,2057.2812094944584,5709.695687181428
2.39953431372549,873.9027820056876,873.4424106974727,0.22520505183396514,0.3079585060287811,0.18604149397121889,0.35471955918904036,2057.0977429662703,5712.8451558015495
2.4029379084967317,874.098952930823,873.6376240080062,0.22549597003378238,0.3080637606549503,0.18593623934504977,0.3547195591890424,2056.9131429005633,5715.992097459104
2.4063415032679734,874.2957554520815,873.8334637258123,0.22578868508671632,0.30816966538518015,0.18583033461481976,0.35471955918904446,2056.727402654546,5719.136520479171
2.4097450980392154,874.4931932327626,874.0299335057452,0.22608320752400712,0.308276224029689,0.18572377597031098,0.3547195591890465,2056.540515545695,5722.278433180415
2.4131486928104575,874.6912699572163,874.2270370201267,0.2263795479398333,0.3083834404214657,0.18561655957853426,0.3547195591890486,2056.3524748515497,5725.417843875245
2.416552287581699,874.8899893314979,874.4247779599968,0.22667771699163966,0.30849131841638944,0.18550868158361064,0.35471955918905074,2056.163273809505,5728.554760869952
2.419955882352941,875.0893550839367,874.6231600361772,0.2269777254004696,0.3085998618933489,0.18540013810665104,0.35471955918905285,2055.9729056165993,5731.689192464866
2.423359477124183,875.2893709656366,874.8221869801769,0.22727958395130074,0.308709074754365,0.18529092524563498,0.354719559189055,2055.781363429302,5734.821146954518
2.426763071895425,875.4900407509177,875.0218625449727,0.22758330349338393,0.3088189609247122,0.18518103907528782,0.3547195591890572,2055.588640363298,5737.950632627775
2.4301666666666666,875.6913682377109,875.222190505682,0.2278888949405847,0.3089295243530429,0.18507047564695708,0.35471955918905934,2055.394729493273,5741.077657768017
2.433570261437908,875.8933572479143,875.4231746601488,0.22819636927172765,0.30904076901151184,0.1849592309884882,0.35471955918906156,2055.1996238526917,5744.202230653292
2.4369738562091503,876.0960116277166,875.6248188294584,0.2285057375309425,0.3091526988959009,0.18484730110409905,0.3547195591890637,2055.00331643358,5747.3243595564645
2.4403774509803924,876.2993352478944,875.8271268583909,0.22881701082801192,0.30926531802574586,0.1847346819742542,0.354719559189066,2054.805800186305,5750.444052745392
2.443781045751634,876.5033320040877,876.0301026158278,0.2291302003387218,0.30937863044446196,0.18462136955553798,0.3547195591890682,2054.6070680193525,5753.561318483072
2.4471846405228757,876.7080058170582,876.2337499951168,0.22944531730521242,0.3094926402194721,0.1845073597805279,0.3547195591890705,2054.407112799101,5756.676165027816
2.4505882352941177,876.9133606329324,876.4380729144042,0.22976237303633126,0.3096073514423335,0.1843926485576665,0.3547195591890728,2054.2059273496034,5759.788600633406
2.45399183006536,877.1194004234336,876.6430753169399,0.23008137890798708,0.3097227682288665,0.18427723177113348,0.35471955918907505,2054.003504452358,5762.898633549256
2.4573954248366014,877.3261291861039,876.8487611713597,0.23040234636350515,0.30983889471928283,0.18416110528071722,0.3547195591890774,2053.799836846083,5766.00627202058
2.460799019607843,877.5335509445183,877.0551344719502,0.23072528691398383,0.30995573507831436,0.18404426492168563,0.3547195591890797,2053.594917226495,5769.111524288555
2.4642026143790847,877.741669748493,877.2621992388978,0.23105021213865168,0.3100732934953429,0.18392670650465706,0.3547195591890821,2053.3887382460766,5772.214398590483
2.4676062091503264,877.9504896742885,877.4699595185259,0.23137713368522594,0.3101915741845295,0.18380842581547055,0.35471955918908443,2053.181292513852,5775.314903159956
2.4710098039215684,878.160014824809,877.6784193835226,0.2317060632702718,0.31031058138494416,0.1836894186150558,0.3547195591890869,2052.972572595158,5778.413046227023
2.4744133986928105,878.3702493297974,877.8875829331598,0.2320370126795621,0.3104303193606968,0.18356968063930318,0.35471955918908926,2052.7625710114175,5781.508836018355
2.477816993464052,878.5811973460308,878.097454293506,0.23236999376843842,0.31055079240106714,0.18344920759893285,0.3547195591890917,2052.551280239907,5784.602280757405
2.481220588235294,878.7928630575105,878.3080376176343,0.23270501846217254,0.3106720048206357,0.18332799517936427,0.35471955918909415,2052.338692713532,5787.693388664581
2.484624183006536,879.0052506756543,878.5193370858266,0.2330420987563286,0.3107939609594151,0.1832060390405849,0.3547195591890966,2052.1248008205916,5790.782167957404
2.488027777777778,879.2183644394848,878.7313569057726,0.23338124671712576,0.3109166651829807,0.18308333481701924,0.3547195591890991,2051.909596904553,5793.868626850683
2.4914313725490196,879.4322086158189,878.9441013127695,0.2337224744818016,0.3110401218826029,0.1829598781173971,0.3547195591891016,2051.693073263819,5796.95277355667
2.494834967320261,879.646787499457,879.1575745699174,0.2340657942589763,0.311164335475378,0.18283566452462205,0.35471955918910414,2051.475222151497,5800.034616285236
2.4982385620915033,879.8621054133711,879.3717809683143,0.2344112183290167,0.3112893104043605,0.1827106895956395,0.3547195591891067,2051.2560357751677,5803.114163244032
2.5016421568627454,880.0781667088938,879.5867248272496,0.23475875904440138,0.3114150511386951,0.18258494886130489,0.35471955918910925,2051.035506296654,5806.191422638659
2.505045751633987,880.2949757659075,879.8024104943979,0.23510842883008576,0.31154156217374873,0.18245843782625126,0.35471955918911185,2050.8136258317895,5809.266402672829
2.5084493464052287,880.5125369930328,880.0188423460116,0.23546024018386802,0.3116688480312428,0.18233115196875724,0.35471955918911446,2050.590386450185,5812.33911154854
2.5118529411764707,880.73085482782,880.2360247871142,0.235814205676755,0.3117969132593858,0.1822030867406142,0.3547195591891171,2050.3657801749987,5815.409557466237
2.515256535947713,880.949933736938,880.4539622516921,0.2361703379533283,0.3119257624330057,0.1820742375669943,0.35471955918911974,2050.139798982701,5818.477748624982
2.5186601307189544,881.169778216366,880.6726592028892,0.23652864973211105,0.31205540015368255,0.18194459984631742,0.35471955918912246,2049.9124348028436,5821.543693222619
2.522063725490196,881.3903927915853,880.8921201331991,0.23688915380593478,0.3121858310498814,0.1818141689501186,0.3547195591891251,2049.6836795178288,5824.607399455947
2.5254673202614377,881.6117820177717,881.1123495646602,0.2372518630423061,0.31231705977708474,0.18168294022291523,0.35471955918912784,2049.4535249626697,5827.668875520883
2.5288709150326794,881.8339504799882,881.3333520490492,0.23761679038377395,0.31244909101792556,0.18155090898207446,0.3547195591891306,2049.2219629247647,5830.728129612632
2.5322745098039214,882.0569027933798,881.555132168077,0.23798394884829685,0.31258192948232005,0.1814180705176799,0.35471955918913334,2048.9889851436624,5833.7851699258545
2.5356781045751635,882.2806436033678,881.7776945335845,0.23835335152960987,0.31271557990760057,0.1812844200923994,0.35471955918913617,2048.7545833108256,5836.8400046548395
2.539081699346405,882.5051775858458,882.0010437877391,0.2387250115975921,0.3128500470586485,0.18114995294135153,0.35471955918913894,2048.518749069402,5839.892641993664
2.542485294117647,882.7305094473762,882.225184603232,0.23909894229863368,0.3129853357280269,0.18101466427197313,0.3547195591891418,2048.2814740139897,5842.943090136374
2.545888888888889,882.9566439253873,882.4501216834767,0.2394751569560031,0.31312145073611364,0.18087854926388636,0.35471955918914466,2048.0427496904035,5845.991357277145
2.549292483660131,883.1835857883723,882.6758597628075,0.23985366897021393,0.3132583969312339,0.18074160306876608,0.35471955918914755,2047.8025675954434,5849.037451610452
2.5526960784313726,883.4113398360877,882.90240360668,0.24023449181939163,0.3133961791897931,0.18060382081020687,0.35471955918915044,2047.560919176661,5852.081381331243
2.556099673202614,883.6399108997539,883.1297580118717,0.24061763905964026,0.31353480241640935,0.1804651975835907,0.3547195591891534,2047.317795832127,5855.123154635111
2.5595032679738563,883.869303842256,883.3579278066835,0.24100312432540863,0.31367427154404576,0.1803257284559542,0.3547195591891563,2047.0731889101999,5858.162779718458
2.5629068627450984,884.0995235583458,883.5869178511421,0.24139096132985613,0.3138145915341435,0.1801854084658565,0.3547195591891593,2046.8270897092923,5861.200264778667
2.56631045751634,884.330574974844,883.8167330372038,0.2417811638652183,0.3139557673767533,0.1800442326232467,0.3547195591891623,2046.5794894776388,5864.235618014273
2.5697140522875817,884.562463050845,884.0473782889588,0.24217374580317214,0.3140978040906679,0.1799021959093321,0.3547195591891653,2046.3303794130672,5867.268847625142
2.5731176470588237,884.7951927779201,884.2788585628359,0.2425687210952004,0.3142407067235541,0.1797592932764459,0.35471955918916837,2046.0797506627628,5870.29996181263
2.576521241830066,885.0287691803237,884.5111788478092,0.2429661037729556,0.31438448035208405,0.17961551964791592,0.3547195591891715,2045.8275943230408,5873.328968779759
2.5799248366013074,885.2631973151995,884.744344165605,0.24336590794862367,0.3145291300820671,0.17947086991793287,0.3547195591891746,2045.573901439115,5876.3558767313925
2.583328431372549,885.4984822727878,884.9783595709094,0.24376814781528658,0.3146746610485809,0.17932533895141917,0.3547195591891777,2045.3186630048656,5879.3806938744065
2.5867320261437907,885.7346291766327,885.2132301515778,0.24417283764728426,0.31482107841610213,0.1791789215838979,0.35471955918918086,2045.0618699626134,5882.403428417859
2.5901356209150324,885.9716431837923,885.4489610288438,0.2445799918005759,0.3149683873786378,0.1790316126213622,0.3547195591891841,2044.803513202886,5885.4240885731615
2.5935392156862744,886.2095294850468,885.6855573575301,0.24498962471310037,0.31511659315985513,0.17888340684014492,0.35471955918918724,2044.543583564193,5888.4426825542605
2.5969428104575165,886.4482933051114,885.9230243262607,0.24540175090513527,0.31526570101321144,0.17873429898678855,0.3547195591891905,2044.2820718327957,5891.459218577799
