z,T,t,fs,x,y,w,rhob,p
0.0,556.2446668317758,298.0,0.0,0.22647887927390836,0.26752112072609163,0.35471967191955606,2200.0,2040.0
0.002066468253968254,575.2609972184827,341.79392887779755,4.310233165808251e-07,0.22647903521876878,0.2675209647812313,0.35471967191955606,2199.9997264972335,2044.2813480995737
0.004132936507936508,592.3681113468467,380.8917592011694,1.7084772446676488e-06,0.2264794974034507,0.2675205025965493,0.35471967191955606,2199.998915897968,2048.7786485016436
0.008265873015873016,621.7376570116759,447.38819969155185,9.493811572902727e-06,0.2264823141486899,0.2675176858513101,0.35471967191955606,2199.9939757696793,2058.3403667028524
0.012398809523809524,645.8114568596237,501.33249296123785,2.85606366504699e-05,0.22648921255362664,0.2675107874463733,0.35471967191955606,2199.9818770520183,2068.5405909406018
0.016531746031746033,665.6703351535011,545.4667536246629,6.25567376812648e-05,0.2265015123922326,0.26749848760776745,0.35471967191955606,2199.9603050689384,2079.25898060707
0.02479761904761905,695.8414659425591,611.9004880848374,0.0001807252078617097,0.22654426591594432,0.2674557340840557,0.35471967191955606,2199.885322110246,2101.86704178679
0.030997023809523815,712.2973063222072,647.8148336955758,0.00031209798190131856,0.22659179677592248,0.26740820322407755,0.35471967191955606,2199.801960454856,2119.554218124406
0.037196428571428575,724.934974998226,675.2304879317094,0.0004759540702952516,0.22665108014609528,0.2673489198539047,0.35471967191955606,2199.697986744366,2137.656075905552
0.04339583333333334,734.6874979598593,696.2745794470371,0.0006677124847725981,0.22672045861826948,0.2672795413817305,0.35471967191955606,2199.5763078121627,2156.031605855446
0.0495952380952381,742.2439454889832,712.4973327567135,0.0008830034067551486,0.22679835118575256,0.2672016488142474,0.35471967191955606,2199.4396964954108,2174.5740621500286
0.05579464285714286,748.1197151849044,725.0466084117102,0.0011179904842489354,0.22688336985083504,0.267116630149165,0.35471967191955606,2199.2905871238663,2193.2027656064424
0.06199404761904763,752.7040159279966,734.782562680604,0.0013694434272665612,0.22697434588991955,0.26702565411008045,0.35471967191955606,2199.1310294549667,2211.8568965455374
0.0681934523809524,756.2929079444649,742.3556267137474,0.001634704971424769,0.22707031790090235,0.2669296820990976,0.35471967191955606,2198.9627096368467,2230.490781941037
0.07439285714285715,759.112844159682,748.2610434815587,0.0019116195350348127,0.2271705059912055,0.26682949400879447,0.35471967191955606,2198.7869954784687,2249.0703086803105
0.08059226190476192,761.3377656779132,752.8778792572866,0.002198453812319822,0.2272742830482878,0.2667257169517122,0.3547196719195561,2198.604986836634,2267.570188470242
0.08679166666666668,763.101706363651,756.4974394089489,0.002493822059342494,0.22738114770798507,0.266618852292015,0.3547196719195561,2198.4175630252594,2285.971868867264
0.0991904761904762,765.6372123215443,761.591525100068,0.0031059752388873847,0.2276026256152214,0.2663973743847786,0.3547196719195561,2198.0291255977013,2322.4309134232963
0.11158928571428572,767.2979364347976,764.7957212865928,0.003741708093483814,0.2278326346830532,0.2661673653169468,0.35471967191955617,2197.625725855766,2358.381678810337
0.12398809523809524,768.4315517192088,766.8610565899983,0.004397027372445416,0.22806973014759682,0.26593026985240314,0.35471967191955617,2197.2098976881534,2393.795998460939
0.13638690476190476,769.2477161988917,768.2398673880941,0.00506943665117745,0.22831300879881708,0.26568699120118294,0.3547196719195562,2196.783225183257,2428.667152519605
0.1487857142857143,769.8730281741729,769.2050928604198,0.005757377075403491,0.22856190664097828,0.2654380933590217,0.3547196719195562,2196.3466975009246,2463.000433337483
0.1611845238095238,770.3839661558867,769.9215489165773,0.006459874805688405,0.22881607133756204,0.265183928662438,0.3547196719195563,2195.9009325840134,2496.807626707867
0.17358333333333334,770.826727601225,770.4887711037368,0.007176320407215631,0.22907528239416863,0.26492471760583136,0.3547196719195563,2195.446317145033,2530.1038006336958
0.18598214285714287,771.2292077046473,770.9668537872982,0.007906331436835638,0.2293394014423126,0.2646605985576874,0.35471967191955633,2194.983093860552,2562.905453405812
0.1983809523809524,771.6082408930621,771.3920601956299,0.008649667110854856,0.22960834136610467,0.2643916586338953,0.35471967191955633,2194.5114155181436,2595.2294611568177
0.22317857142857145,772.3325127415595,772.1625602279869,0.010175760903274083,0.23016048431118036,0.2638395156888196,0.35471967191955645,2193.5430436028337,2658.5107113127006
0.260375,773.3952364722423,773.2494456746458,0.012562483665041193,0.2310240040642306,0.26297599593576937,0.35471967191955656,2192.028565722374,2750.2476478385656
0.2975714285714286,774.4638928524504,774.3275588630963,0.015065781304078233,0.23192970077676872,0.2620702992232313,0.35471967191955667,2190.4401160862208,2838.4951046996284
0.32236904761904767,775.1850432958398,775.0529979539142,0.01679941603562856,0.2325569323343038,0.2614430676656962,0.3547196719195568,2189.3400505504205,2895.5500686906603
0.3471666666666667,775.9142149528523,775.7859770763306,0.018584977750283845,0.23320295114955716,0.2607970488504428,0.3547196719195569,2188.2070351183984,2951.283092093291
0.37196428571428575,776.6517358296954,776.5271249561929,0.02042261768500191,0.23386781194027928,0.26013218805972077,0.354719671919557,2187.040973823823,3005.7702108512512
0.3967619047619048,777.3977735652321,777.2767183867151,0.022312528201744623,0.2345515843033066,0.2594484156966934,0.3547196719195571,2185.8417446047843,3059.0804539449937
0.42155952380952383,778.1524416721544,778.0349115092827,0.024254938484837327,0.23525435115786011,0.2587456488421399,0.3547196719195572,2184.609202034007,3111.276715860814
0.4463571428571429,778.9158374229354,778.8018177166988,0.026250111608379437,0.2359762076845301,0.2580237923154699,0.35471967191955733,2183.3431791797,3162.4164988382604
0.47115476190476197,779.6880552663957,779.5775387687532,0.028298342276367464,0.2367172605076495,0.25728273949235053,0.3547196719195575,2182.0434890395477,3212.5525449908646
0.495952380952381,780.4691915255933,780.3621750770436,0.030399954952729537,0.2374776270187375,0.25652237298126246,0.35471967191955767,2180.7099257272807,3261.733376625915
0.52075,781.2593460080407,781.155829303318,0.03255530225623127,0.2382574347957745,0.2557425652042255,0.3547196719195578,2179.3422654911815,3310.0037602057973
0.5455476190476191,782.0586225330877,781.9586075977785,0.034764763556810845,0.23905682109535364,0.25494317890464635,0.35471967191955794,2177.9402676047653,3357.405106629018
0.5703452380952382,782.8671290870468,782.7706200123797,0.03702874373531119,0.23987593240395053,0.25412406759604944,0.35471967191955817,2176.5036751537855,3403.9758181689263
0.5951428571428572,783.6849778566574,783.591980631356,0.039347672080153925,0.24071492403873807,0.253285075961262,0.35471967191955833,2175.032215736339,3449.7515905071436
0.6199404761904762,784.5122852290062,784.4228076095973,0.04172200130059551,0.24157395979058105,0.25242604020941894,0.35471967191955855,2173.5256020890024,3494.7656767740978
0.6447380952380953,785.3491717894053,785.2632231856837,0.04415220663996733,0.24245321160320538,0.2515467883967946,0.3547196719195587,2171.9835326495136,3539.049119288268
0.6695357142857143,786.1957623300708,786.1133536933519,0.046638785074949604,0.2433528592834939,0.2506471407165061,0.35471967191955894,2170.4056920648695,3582.630953705402
0.6943333333333334,787.0521858781117,786.9733295809178,0.049182254588960125,0.24427309023859767,0.24972690976140233,0.3547196719195592,2168.791751652394,3625.538389498063
0.7191309523809525,787.9185757538786,787.8432854446826,0.051783153509383006,0.24521409923614415,0.24878590076385584,0.35471967191955944,2167.1413698202887,3667.796970044503
0.7439285714285715,788.79506967922,788.7233600837981,0.05444203989974671,0.24617608818432649,0.24782391181567354,0.3547196719195597,2165.454192453329,3709.430715083345
0.7687261904761905,789.6818099726831,789.6136965895179,0.057159490999180405,0.24715926592909784,0.24684073407090215,0.35471967191956,2163.7298532685486,3750.462247863199
0.7935238095238096,790.5789439028812,790.5144424929272,0.05993610270263454,0.24816384806611466,0.24583615193388536,0.3547196719195603,2161.9679741450623,3790.912908966203
0.8183214285714286,791.4866243381045,791.4257500167832,0.06277248907658667,0.24919005676551814,0.24480994323448185,0.3547196719195606,2160.168165431374,3830.8028584986596
0.8431190476190477,792.4050109622532,792.3477765185071,0.0656692819065065,0.2502381206082066,0.24376187939179345,0.35471967191956094,2158.3300262325256,3870.1511681119964
0.8679166666666668,793.3342725904854,793.2806852917302,0.06862713027466376,0.25130827443308545,0.24269172556691454,0.3547196719195613,2156.4531446779997,3908.975904140579
0.8927142857142858,794.2745916488485,794.2246470513521,0.07164670017078872,0.2524007591962042,0.24159924080379583,0.35471967191956166,2154.53709816877,3947.2942030253
0.9175119047619048,795.226172963169,795.179842739646,0.07472867414534648,0.2535158218453098,0.24048417815469017,0.35471967191956205,2152.581453597314,3985.122340153778
0.9423095238095239,796.1892612238188,796.1464689195358,0.0778737510292518,0.2546537152184397,0.23934628478156023,0.3547196719195625,2150.585767525467,4022.475793339013
0.9671071428571429,797.164176089862,797.1247483070878,0.0810826457719814,0.25581469798535056,0.23818530201464946,0.35471967191956294,2148.549586287145,4059.3693024859017
0.991904761904762,798.1513834372122,798.1149506902893,0.08435608950768207,0.2569990346714357,0.23700096532856432,0.3547196719195634,2146.472445946397,4095.8169277857673
1.016702380952381,799.1516409490587,799.1174353422273,0.08769483008018866,0.25820699584767814,0.23579300415232185,0.3547196719195639,2144.3538719642597,4131.832110499825
1.0415,800.1662959369587,800.1327395310741,0.09109963352282315,0.2594388586660436,0.23456114133395636,0.3547196719195644,2142.1933782597607,4167.42774397316
1.0662976190476192,801.1978881200566,801.1617713262808,0.09457128760013402,0.260694908140887,0.23330509185911297,0.35471967191956494,2139.9904649625323,4202.616269663873
1.0910952380952381,802.2513271926165,802.2062551074624,0.0981106100338621,0.26197544012511886,0.23202455987488116,0.3547196719195655,2137.744613193084,4237.409826119577
1.1158928571428572,803.3359946967735,803.2698203531278,0.10171846801618609,0.2632807683701258,0.23071923162987418,0.35471967191956616,2135.455272680815,4271.820498463545
1.1406904761904764,804.4687320662307,804.3606324844685,0.10539582565728205,0.2646112416923664,0.22938875830763364,0.35471967191956677,2133.1218316564978,4305.860727318021
1.1654880952380953,805.6757476195014,805.496570315766,0.10914385406358065,0.2659672837998438,0.22803271620015625,0.3547196719195675,2130.7435470029122,4339.543875153995
1.1902857142857144,806.9880803935893,806.7100172693611,0.11296413572448798,0.2673494672395178,0.22665053276048217,0.3547196719195682,2128.31941456271,4372.884702558124
1.2150833333333335,808.4274619862903,808.0404194095788,0.11685887973274144,0.2687585912643415,0.22524140873565857,0.354719671919569,2125.8480325718724,4405.899187762534
1.2398809523809524,809.9933560496696,809.5108014552096,0.12083088771540734,0.27019566950704615,0.22380433049295384,0.3547196719195698,2123.3276232779576,4438.603384896303
1.2646785714285715,811.6658778373754,811.1136766741489,0.12488316271342367,0.2716617884721941,0.22233821152780597,0.35471967191957077,2120.756281122788,4471.01199549686
1.2894761904761907,813.4196330921673,812.8223042454173,0.12901845068900222,0.27315794165289164,0.22084205834710835,0.3547196719195717,2118.1322636756554,4503.137636585233
1.3142738095238096,815.2340116172737,814.6087827968219,0.13323897557820374,0.27468493367242774,0.21931506632757225,0.3547196719195728,2115.454159753819,4534.990966102979
1.3390714285714287,817.095771086636,816.4528639603135,0.13754627037246908,0.2762433191693266,0.2177566808306734,0.354719671919574,2112.7209966085097,4566.58119253371
1.3638690476190476,818.9974327792834,818.3423480078561,0.1419407581363923,0.27783325120897123,0.21616674879102876,0.3547196719195752,2109.9325057871106,4597.91656213187
1.3886666666666667,820.934711371173,820.2703608770963,0.14642046582761536,0.27945401594177804,0.21454598405822198,0.3547196719195766,2107.0899392695565,4629.004679725872
1.4134642857142858,822.9039126885981,822.232203108107,0.1509774843939724,0.2811027518612148,0.2128972481387852,0.3547196719195781,2104.1983156884075,4659.852654852703
1.4506607142857144,825.9012921620694,825.2235086269608,0.15789883008157962,0.2836069047585155,0.2103930952414845,0.3547196719195806,2099.80642522052,4705.688544395236
1.487857142857143,828.884941221085,828.2170059701908,0.16466859945887743,0.28605621712714474,0.20794378287285528,0.3547196719195835,2095.5107164176516,4751.016680993646
1.5126547619047621,830.785160520745,830.1423638548017,0.16879375004741196,0.2875487025865218,0.2064512974134782,0.35471967191958553,2092.893131577058,4780.957419236295
1.537452380952381,832.5443902699582,831.9425869747262,0.172370832823859,0.28884289631745425,0.20515710368254578,0.3547196719195878,2090.6233192518544,4810.673700171726
1.5622500000000001,834.1405316782666,833.585517594716,0.17535751127317167,0.2899234809074616,0.20407651909253838,0.3547196719195903,2088.728143775261,4840.160942154743
1.5870476190476193,835.5935589969723,835.0801818486539,0.17785644288941468,0.29082759798662494,0.203172402013375,0.3547196719195929,2087.1424645676852,4869.414764717578
1.6118452380952384,836.9392941378807,836.4578657032739,0.18000448654542048,0.29160476329341384,0.20239523670658616,0.3547196719195957,2085.7794388089355,4898.432632647077
1.6366428571428573,838.2106408469888,837.7518864788128,0.18191342175144054,0.29229541881658155,0.20170458118341847,0.35471967191959863,2084.5681376092075,4927.214059817695
1.6614404761904762,839.432471675793,838.9891897763526,0.18366241552342474,0.2929282072971945,0.20107179270280554,0.3547196719196018,2083.458326104007,4955.760175398107
1.6862380952380953,840.6224113667147,840.189438391583,0.1853057961160253,0.2935227847764956,0.20047721522350437,0.35471967191960513,2082.4155306874054,4984.0732269699865
1.7110357142857144,841.7928016551016,841.3665189786187,0.1868811768335832,0.2940927598024891,0.19990724019751088,0.3547196719196086,2081.415884105799,5012.156195356925
1.7358333333333336,842.9523827631648,842.5302432965813,0.1884151832643794,0.2946477655515897,0.19935223444841033,0.35471967191961234,2080.4424912823256,5040.0125290919805
1.7606309523809525,844.1074734315631,843.6876543530152,0.18992713974004374,0.29519479359497774,0.19880520640502228,0.35471967191961623,2079.483090100382,5067.645967885256
1.7854285714285716,845.2627491172473,844.8439186356858,0.1914314087092828,0.2957390402874034,0.19826095971259663,0.3547196719196204,2078.5285669707296,5095.060425664712
1.8102261904761907,846.4217495584205,846.002913875537,0.19293889873285724,0.29628445236195394,0.19771554763804605,0.3547196719196247,2077.5719999440566,5122.259912297272
1.8226250000000002,847.0035382494349,846.5844000544411,0.1936966181970101,0.2965585963618531,0.19744140363814686,0.354719671919627,2077.09119447036,5135.780307388886
1.8350238095238096,847.5874526459181,847.1677639654417,0.19445911867023502,0.2968344701377612,0.19716552986223881,0.35471967191962933,2076.6073552415073,5149.248482417506
1.8432896825396827,847.9789847337195,847.5584582852475,0.1949746391535354,0.29702098619549494,0.19697901380450508,0.3547196719196309,2076.2802354011183,5158.19851465825
1.8474226190476193,848.1761521281339,847.7548467507546,0.19523759457518827,0.29711612384801345,0.1968838761519866,0.3547196719196317,2076.113378916561,5162.664971480444
1.8494890873015875,848.2749525290996,847.8532632949828,0.19536965300525796,0.2971639027793362,0.19683609722066375,0.3547196719196321,2076.029582183035,5164.896070825589
1.8515555555555556,848.3725808222515,847.9511262688969,0.19549595841008624,0.2972096002577918,0.1967903997422082,0.3547196719196325,2075.949435990583,5167.125752220292
1.8518138640873016,848.3845326434199,847.9632272485181,0.19551056030935918,0.2972148832461037,0.19678511675389634,0.35471967191963255,2075.940170459698,5167.404362382459
1.8520721726190477,848.396395868092,847.9752804429014,0.1955247493264851,0.2972200168530566,0.19677998314694342,0.3547196719196326,2075.931166920231,5167.682950217168
1.8523304811507937,848.4081619396769,847.9872807114288,0.19553848720822403,0.2972249872385729,0.19677501276142711,0.35471967191963266,2075.9224496455017,5167.96151567934
1.8525887896825397,848.4198243569297,847.9992238944697,0.1955517456108299,0.29722978414784423,0.19677021585215582,0.3547196719196327,2075.914036620831,5168.240058719911
1.8528470982142857,848.4313792588428,848.0111071320706,0.19556450880741766,0.29723440189086064,0.19676559810913932,0.3547196719196328,2075.9059378256015,5168.518579287073
1.8531054067460317,848.4428257496944,848.0229290554614,0.19557677515155572,0.297238839871941,0.19676116012805894,0.35471967191963283,2075.8981543045456,5168.797077327779
1.8533637152777778,848.454165900002,848.0346898160414,0.1955885570006073,0.2972431025619972,0.1967568974380028,0.3547196719196329,2075.890678216386,5169.0755527893125
1.8536220238095238,848.4654044324492,848.0463909533133,0.19559987915075455,0.29724719893232376,0.19675280106767626,0.35471967191963294,2075.8834938268824,5169.3540056207885
1.8556884920634922,848.5526197895218,848.1382674666058,0.19567869409081182,0.29727571429182176,0.1967242857081782,0.35471967191963333,2075.833482369633,5171.580808785854
1.8577549603174606,848.6375302353276,848.228224932659,0.19574863356966257,0.29730101849659674,0.1966989815034033,0.3547196719196337,2075.7891027728965,5173.806147132393
1.8598214285714287,848.721693675292,848.3170626137347,0.19581705089533621,0.2973257719841469,0.19667422801585316,0.35471967191963416,2075.745689047585,5176.030017075051
1.8722202380952382,849.2206853594948,848.8352384494041,0.19623096643895563,0.2974755272274996,0.19652447277250037,0.35471967191963666,2075.483041895921,5189.342432633114
1.8846190476190479,849.7145609418429,849.3384595234494,0.19665289407665584,0.2976281812580985,0.19637181874190154,0.35471967191963927,2075.215310727187,5202.602248611425
1.909416666666667,850.7009355341837,850.3305739778517,0.19752085838509903,0.29794221200237964,0.1960577879976203,0.3547196719196446,2074.66455017501,5228.965679006287
1.9342142857142859,851.6953316272549,851.3244474434582,0.1984228629023658,0.29826855854352985,0.19573144145647012,0.35471967191965015,2074.0921896514674,5255.123986739
1.9590119047619048,852.7022868858654,852.3290359440879,0.1993615004175318,0.29860815895639303,0.19539184104360696,0.35471967191965603,2073.4965839207725,5281.081164803594
1.983809523809524,853.7236591055197,853.3473960782889,0.20033943901764345,0.2989619785587279,0.19503802144127205,0.3547196719196622,2072.8760399673474,5306.841235872815
2.008607142857143,854.7605821637907,854.380986483577,0.20135936749574673,0.2993309901597541,0.19466900984024588,0.35471967191966863,2072.2288516367707,5332.40817947023
2.033404761904762,855.8139993491687,855.4308384866833,0.20242398655762206,0.2997161708787357,0.1942838291212643,0.3547196719196754,2071.553305215479,5357.785914537922
2.058202380952381,856.8848094290117,856.4978747227797,0.20353601156605727,0.30011850313786326,0.1938814968621368,0.3547196719196825,2070.847677689412,5382.978296871242
2.083,857.973907818928,857.5829968369102,0.2046981786291174,0.3005389768649986,0.1934610231350014,0.35471967191968995,2070.1102328807406,5407.989120515597
2.1077976190476195,859.0821995410325,858.6871109273533,0.20591325193156607,0.30097859214619405,0.19302140785380595,0.3547196719196978,2069.3392167957672,5432.822120207204
2.1325952380952384,860.2106047378359,859.8111363768709,0.20718403182075731,0.3014383621511793,0.19256163784882066,0.354719671919706,2068.5328524940796,5457.480974085403
2.1573928571428573,861.3600623513637,860.9560103889075,0.2085133635462171,0.301919316295355,0.19208068370464498,0.35471967191971465,2067.689334542916,5481.9693064787325
2.1821904761904762,862.5315334742378,862.1226915395034,0.2099041466104564,0.3024225036229304,0.19157749637706964,0.35471967191972376,2066.806823083668,5506.290690719893
2.2069880952380956,863.726004765476,863.3121632231315,0.21135934466738704,0.3029489963881843,0.19105100361181576,0.3547196719197333,2065.8834375509146,5530.4486519847715
2.2317857142857145,864.9444920164467,864.5254372094346,0.21288199587091838,0.30349989379960274,0.1905001062003972,0.3547196719197434,2064.9172501057938,5554.446670160108
2.2565833333333334,866.1880438652354,865.7635573453555,0.214475223552266,0.3040763258829447,0.18992367411705535,0.354719671919754,2063.906278860792,5578.288182745623
2.2813809523809527,867.4577456319549,867.027603385256,0.2161422470920306,0.3046794574147754,0.1893205425852246,0.35471967191976517,2062.8484809809456,5601.976587795305
2.3061785714285716,868.754723241066,868.3186949175991,0.21788639285257616,0.30531049187781745,0.18868950812218252,0.354719671919777,2061.7417457467755,5625.51524690092
2.3309761904761905,870.0801471985648,869.637995355703,0.21971110505003874,0.30597067539445866,0.18802932460554125,0.3547196719197894,2060.5838876555345,5648.9074882192535
2.3557738095238094,871.4352365964163,870.9867159637132,0.22161995646244229,0.30666130060096436,0.1873386993990356,0.3547196719198025,2059.372639626446,5672.1566095431845
2.380571428571429,872.8212060610451,872.3660770152879,0.22361643328133884,0.3073836288064887,0.18661637119351132,0.3547196719198164,2058.105789521564,5695.265880442943
2.405369047619048,874.2394386648461,873.777423729857,0.2257046550991683,0.30813915048554463,0.18586084951445536,0.35471967191983106,2056.780723282931,5718.238545606155
2.430166666666667,875.6913414240147,875.2221646764308,0.2278886698108942,0.30892933017239466,0.18507066982760534,0.35471967191984655,2055.39487234771,5741.077831214427
2.454964285714286,877.1783645016916,876.7017429509564,0.23017264568366505,0.30975567595213177,0.18424432404786817,0.3547196719198629,2053.945591771757,5763.7869457894685
2.479761904761905,878.7020261124491,878.2176662424025,0.23256093502882008,0.31061976249730416,0.1833802375026958,0.35471967191988024,2052.430119826998,5786.369083284734
2.504559523809524,880.2639179067504,879.7715145017357,0.2350580814277322,0.311523233682235,0.18247676631776494,0.35471967191989867,2050.8455734163285,5808.827426413952
2.529357142857143,881.8657090837194,881.3649446282662,0.2376688271191318,0.3124678052557675,0.1815321947442325,0.35471967191991816,2049.188943386034,5831.165150038473
2.566553571428572,884.3470599662301,883.8331305796615,0.2418088270593273,0.31396566323205954,0.18003433676794042,0.3547196719199497,2046.5619359954117,5864.45250882165
2.6037500000000002,886.9284164964213,886.4005341958683,0.24623321939839135,0.31556641479028213,0.1784335852097179,0.35471967191998427,2043.7544694394608,5897.486306669571
2.628547619047619,888.7081863032121,888.1705412821775,0.24935002015943541,0.3166940778211704,0.17730592217882954,0.35471967192000914,2041.7767257794028,5919.373264175784
2.653345238095238,890.5375042492542,889.989711244878,0.25260737355895474,0.31787259300028775,0.17612740699971224,0.3547196719200356,2039.709795446548,5941.155479508453
2.6781428571428574,892.4185900791595,891.8602491844703,0.25601137059526485,0.31910416405964903,0.17489583594035096,0.3547196719200639,2037.549813441422,5962.836153412459
2.7029404761904767,894.3537705628061,893.7844669363302,0.2595683522742341,0.32039108518436404,0.173608914815636,0.354719671920094,2035.2927561240438,5984.418503490834
2.715339285714286,895.3424038144864,894.7674585259824,0.2614062638887101,0.32105604426920037,0.17294395573079963,0.35471967192010984,2034.1265224370181,5995.1738181223345
2.727738095238095,896.345484103423,895.764787748613,0.26328491608921034,0.3217357433570841,0.1722642566429159,0.3547196719201262,2032.934437102135,6005.905767926661
2.740136904761905,897.3633344260405,896.776775693503,0.26520517460702175,0.32243049567084897,0.17156950432915105,0.35471967192014314,2031.7159507757901,6016.614761509148
2.7525357142857145,898.396596573842,897.8037231882753,0.267169273580598,0.3231406203412505,0.17085937965874948,0.3547201611039344,2030.4696458013857,6027.301208994924
2.764934523809524,899.4500809547092,898.8477756110078,0.2691933316089927,0.323866439353303,0.17013356064669702,0.3547266492189756,2029.1852942370251,6037.9655671563
2.7773333333333334,900.5266546614982,899.9127632612136,0.2712821329966378,0.3246082880555388,0.16939171194446123,0.3547405318850094,2027.8598602365048,6048.608368902739
2.8021309523809528,902.7553234841712,902.1146372493939,0.27566312401371446,0.32614150583667645,0.16785849416332357,0.35479236300095474,2025.0799336794119,6069.831587610251
2.8269285714285717,905.093072866177,904.422341525933,0.2803318359929567,0.3277432571298237,0.1662567428701763,0.35487975846584713,2022.1174358409266,6090.975625572508
2.8517261904761906,907.5494881215361,906.8458477707568,0.28530977998178,0.32941668260230694,0.16458331739769305,0.35500736034047997,2018.9587170395614,6112.045505865422
2.87652380952381,910.1346530461797,909.3951587422167,0.29062040869080247,0.33116505328662144,0.16283494671337856,0.3551803828170376,2015.5888955253133,6133.046505715342
2.901321428571429,912.8594381038596,912.0810527767727,0.296289185341988,0.33299173622946354,0.16100826377053648,0.35540467147942073,2011.9918137925652,6153.984175386883
2.9137202380952383,914.2777613336508,913.4788533585447,0.29926636434739673,0.33393549846115356,0.16006450153884647,0.35553805692517354,2010.1026661202475,6164.431075687958
2.9261190476190477,915.7352741897321,914.9152931276328,0.30234344131089347,0.33490007385680653,0.15909992614319343,0.3556867724329299,2008.1501289121818,6174.864357907583
2.938517857142857,917.2332627665295,916.3920000272352,0.3055239446869217,0.3358857990384074,0.1581142009615926,0.35585175798063484,2006.1319632128043,6185.284797419139
2.9509166666666666,918.772658388207,917.9106526950609,0.3088111967026279,0.33689288268471873,0.15710711731528132,0.35603400687612036,2004.0460609266097,6195.693182245498
2.963315476190476,920.3535668197718,919.4729552517771,0.3122079021903437,0.33792125426906533,0.1560787457309347,0.356234568258318,2001.8907057215615,6206.090302792363
2.975714285714286,921.9742751929892,921.0805604101555,0.31571526482021556,0.33897024185177166,0.15502975814822836,0.35645454955650613,1999.6651338173667,6216.476929119247
2.988113095238096,923.6292164122577,922.7347729769746,0.31933114617892655,0.3400379041934103,0.15396209580658976,0.35669511832907597,1997.3707021289206,6226.853762342971
3.0005119047619053,925.3051369907549,924.4353190879572,0.323046549917201,0.3411197610224134,0.1528802389775865,0.35695749995539366,1995.0131192253964,6237.221335266315
3.0129107142857148,926.9753757842506,926.1757941941372,0.32684030564153327,0.3422068922663487,0.15179310773365132,0.3572429550288501,1992.6058186287767,6247.579827484923
3.0253095238095242,928.5962283468637,927.9316619424644,0.3306756624661287,0.3432847991400946,0.15071520085990542,0.35755268581084204,1990.1721203511356,6257.928788514457
3.0377083333333337,930.1165698017085,929.6462684052673,0.334509432671526,0.34433694895303485,0.14966305104696512,0.35788759961251493,1987.7394288513738,6268.26690006208
3.050107142857143,931.5049456563457,931.2458478017707,0.3383174148631064,0.34535426819591664,0.14864573180408341,0.35824801384348626,1985.3231009515791,6278.59208160985
3.0625059523809526,932.7688702036032,932.6893655463307,0.34211067029195824,0.34634103675613476,0.14765896324386527,0.35863365059303015,1982.9161178138827,6288.9020560040135
3.074904761904762,933.9440445419157,933.9909457382066,0.34592240188912327,0.34730974830273165,0.14669025169726835,0.35904402906065885,1980.497410755556,6299.194983403968
3.0873035714285715,935.0713938272452,935.1951851117004,0.3497862836585918,0.3482728545962302,0.14572714540376977,0.3594788807892796,1978.0456121778952,6309.469745956313
3.0997023809523814,936.1838532326087,936.348107727364,0.35372675255828334,0.34923908434149126,0.14476091565850877,0.35993831840081075,1975.5452157838024,6319.7258948097815
3.112101190476191,937.3039959561765,937.4849113864558,0.3577593101382962,0.35021357505225104,0.14378642494774893,0.3604228128647998,1972.986385175388,6329.963469618047
3.1245000000000003,938.4462052621355,938.6291523474008,0.3618936431310224,0.3511990886234208,0.14280091137657927,0.3609331069601492,1970.3629737058036,6340.182827386761
3.149297619047619,940.8296088083061,940.9936844634619,0.3704921300948125,0.35320818673214177,0.14079181326785825,0.36203495389226786,1964.9068652206945,6360.569223054599
3.1740952380952385,943.3756107203634,943.5062706034029,0.379560314240814,0.35527135729114023,0.1387286427088598,0.36325266549512236,1959.1527137435933,6380.890696884626
3.1988928571428574,946.1077064486549,946.1971044745013,0.38913011308209733,0.3573901429633462,0.13660985703665374,0.364596246908253,1953.0802662445628,6401.1538008217585
3.2236904761904768,949.0452852389427,949.0870937495915,0.3992333464536439,0.35956522929794443,0.13443477070205556,0.3660765250448715,1946.6693316746007,6421.3656651532
3.2484880952380952,952.2076762772475,952.1956347420038,0.4099028969458281,0.361796993908726,0.132203006091274,0.36770501926002397,1939.89904462086,6441.533929437101
3.2732857142857146,955.615209000305,955.542765953681,0.4211727346998288,0.36408558852709233,0.12991441147290766,0.3694938682686026,1932.7478495729,6461.666751768742
3.298083333333334,959.2894362585763,959.1496886155679,0.4330776465754921,0.3664309223474749,0.12756907765252515,0.3714557488124672,1925.1936727772827,6481.772836908531
3.3104821428571434,961.2336267049415,961.0575340898903,0.4392792485052186,0.3676247622547581,0.1263752377452419,0.37250565746813347,1921.2584905699316,6491.818730344512
3.3228809523809524,963.2531107720886,963.0388295986776,0.44565281307001126,0.36883262257199706,0.12516737742800293,0.37360376204434753,1917.2141907008033,6501.8614669246845
3.3352797619047623,965.3508983345653,965.0965545184274,0.45220270500849424,0.3700544046466299,0.12394559535337009,0.37475174036242886,1913.0580035561813,6511.902301670931
3.3476785714285717,967.5300529578922,967.2337478114874,0.4589332323712409,0.3712899857011348,0.12271001429886519,0.37595127385883825,1908.787195493346,6521.942528871454
3.360077380952381,969.7936827777178,969.4534998813975,0.46584861846218334,0.37253921689409203,0.12146078310590797,0.37720403937247676,1904.3990866449533,6531.983482598145
3.3724761904761906,972.1449296920711,971.7589428065119,0.4729529703408075,0.3738019212545596,0.12019807874544042,0.37851169981435856,1899.891070905743,6542.026537069402
3.384875,974.5869567096404,974.1532387961263,0.48025024367136,0.3750778914863939,0.11892210851360603,0.37987589364568247,1895.2606382372219,6552.073106832408
3.39727380952381,977.1229332938524,976.6395667051944,0.48774420372567945,0.3763668876401498,0.11763311235985023,0.3812982230967002,1890.5053994130396,6562.124646736594
3.4096726190476194,979.7560185439564,979.2211064411401,0.49543838237573584,0.37766863465151057,0.11633136534848942,0.38278024106812386,1885.623113309065,6572.182651667617
3.422071428571429,982.4893420604766,981.9010210986322,0.5033360309518378,0.37898281974685394,0.11501718025314607,0.3843234366695919,1880.6117168168753,6582.248656008903
3.4344702380952383,985.3259823538237,984.6824366657131,0.511440068894006,0.38030908971855515,0.11369091028144485,0.38592921936635827,1875.4693574266578,6592.324232795622
3.4468690476190478,988.268942672293,987.5684191579609,0.5197530281884235,0.3816470480750274,0.11235295192497256,0.3875989017262791,1870.1944284846657,6602.410992524
3.4592678571428577,991.3211241498724,990.5619490572009,0.5282769936590296,0.38299625207330207,0.11100374792669793,0.3893336807846447,1864.7856070807602,6612.5105815771785
3.471666666666667,994.4852962060141,993.6658929584861,0.5370135392768461,0.3843562096451996,0.10964379035480039,0.39113461807463057,1859.241894462872,6622.624680227598
3.4840654761904766,997.7640641694214,996.8829723644566,0.5459636607566228,0.38572637623184686,0.10827362376815315,0.39300261840614903,1853.5626588073187,6632.755000175118
3.496464285714286,1001.1598341464395,1000.2157296104003,0.5551277048313061,0.38710615154545625,0.10689384845454379,0.3949384075154698,1847.7476800971863,6642.903281580013
3.5088630952380955,1004.6747752120372,1003.6664909568595,0.5645052957284897,0.38849487628189905,0.10550512371810093,0.3969425087517208,1841.7971967761705,6653.0712895506795
3.521261904761905,1008.3107790674877,1007.2373269496176,0.5740952595171881,0.389891828812639,0.10410817118736099,0.399015219013507,1835.7119537537933,6663.2608100475
3.5336607142857144,1012.0694173831552,1010.9300102191307,0.5838955471449047,0.39129622188999935,0.10270377811000064,0.4011565841983431,1829.4932512416801,6673.473645167007
3.546059523809524,1015.9518971262582,1014.7459709722858,0.5939031571398659,0.392707199405447,0.101292800594553,0.4033663744779261,1823.1429938023061,6683.711607774292
3.5584583333333333,1019.9590142604941,1018.6862505174918,0.6041140591062656,0.3941238332464814,0.0998761667535186,0.4056440597617147,1816.6637388945414,6693.976515456813
3.570857142857143,1024.0911062948517,1022.7514532577612,0.6145231192852177,0.39554512030369676,0.09845487969630327,0.4079887857577121,1810.058744108417,6704.270183779136
3.583255952380953,1028.3480042500505,1026.941697683099,0.6251240295839001,0.3969699796854771,0.09703002031452289,0.4103993510804119,1803.332012199176,6714.594418826132
3.5956547619047625,1032.7289846995961,1031.2565669901214,0.6359092415825517,0.3983972502034103,0.09560274979658968,0.412874185889021,1796.4883329626603,6724.951009031425
3.608053571428572,1037.232722624717,1035.6950600497387,0.6468699071058867,0.39982568819664865,0.09417431180335133,0.41541133256174945,1789.5333209452958,6735.341716298476
3.6204523809523814,1041.8572458945127,1040.2555435288127,0.6579958269846838,0.40125396576788414,0.0927460342321159,0.41800842892170464,1782.4734479570616,6745.7682664336835
3.632851190476191,1046.5998922403826,1044.935706044638,0.6692754096281958,0.4026806695070929,0.09131933049290712,0.42066269452458427,1775.3160693590685,6756.232338923797
3.6452500000000003,1051.4572696333757,1049.7325152874125,0.6806956409732776,0.40410429978149653,0.08989570021850347,0.42337092049626646,1768.0694431321278,6766.73555610375
3.6576488095238098,1056.4252209909037,1054.64217908139,0.6922420672683381,0.40552327067104127,0.08847672932895874,0.42612946336853896,1760.7427408010708,6777.279471775465
3.6700476190476192,1061.4987941325128,1059.660111366428,0.7038987919882201,0.4069359106278944,0.08706408937210562,0.4289342433034021,1753.346049392389,6787.865559352707
3.6824464285714287,1066.6722178711411,1064.780904065238,0.7156484879614224,0.40834046393579965,0.08565953606420035,0.43178074702135927,1745.8903637389933,6798.495199621519
3.6948452380952386,1071.9388850656314,1069.9983057559552,0.7274724255279618,0.40973509304047756,0.08426490695952246,0.43466403565857326,1738.3875686128426,6809.169668219608
3.707244047619048,1077.291343372643,1075.3052079940387,0.7393505172416375,0.41111788181550063,0.08288211818449939,0.4375787576743334,1730.850410359442,6819.890122950859
3.7196428571428575,1082.7212943231023,1080.6936400227635,0.7512613792939791,0.41248683981919587,0.08151316018080411,0.4405191668174279,1723.2924579217147,6830.657591062554
3.732041666666667,1088.2196012127613,1086.1547724797783,0.7631824094800933,0.4138399075871573,0.08016009241284273,0.44347914504178676,1715.7280533673315,6841.472956622413
3.7444404761904764,1093.7762483219428,1091.6788785306094,0.77508974195327,0.41517494742429084,0.07882505257570913,0.4464521953445875,1708.172340598852,6852.33707626525
3.7568392857142863,1099.3752618036472,1097.2506398200828,0.7869464095865951,0.41648843156152643,0.07751156843847355,0.44942847073482567,1700.6487768426086,6863.261844622851
3.7692380952380957,1105.0001564323704,1102.8538265799177,0.7987162301241767,0.4177770315385865,0.07622296846141353,0.45239820888017673,1693.1803212906332,6874.257841946194
3.781636904761905,1110.6385490243467,1108.4759748937086,0.8103736667902579,0.419038664275398,0.07496133572460205,0.45535425361824766,1685.783178121576,6885.325280813297
3.7940357142857146,1116.2776480625744,1114.1043167494552,0.8218928713853357,0.4202712448636309,0.07372875513636913,0.4582893379413399,1678.4737491258022,6896.464172753796
3.806434523809524,1121.904264016033,1119.7257045094925,0.8332478453900805,0.42147269802125853,0.07252730197874147,0.4611961308295204,1671.2685314780485,6907.674321221403
3.818833333333334,1127.5048613535157,1125.3266299341535,0.8444125995252666,0.42264097000333245,0.07135902999666753,0.4640672830688611,1664.1840164898101,6918.955315134812
3.831232142857143,1133.0656289839494,1130.8932827682445,0.8553613113253781,0.42377404091451615,0.07022595908548383,0.46689547194926356,1657.2365896221336,6930.306523454406
3.8436309523809524,1138.5725592886054,1136.411626563139,0.866068479169927,0.4248699373283603,0.06913006267163968,0.46967344437393826,1650.4424327461452,6941.72709101821
3.856029761904762,1144.0115311522813,1141.8674822125133,0.8765090708634246,0.4259267451002621,0.06807325489973787,0.472394057802894,1643.8174298626916,6953.215935752703
3.8684285714285718,1149.3683944301727,1147.2466146752047,0.886658664809422,0.42694262225409546,0.06705737774590456,0.4750503184432801,1637.3770775213584,6964.771747319105
3.8808273809523817,1154.62905406405,1152.5348202971902,0.8964935819040141,0.42791581182246285,0.0660841881775372,0.47763541612839533,1631.136401128393,6976.392987220586
3.893226190476191,1159.7795523521618,1157.7180128938178,0.9059910064019252,0.42884465452619075,0.06515534547380922,0.48014275536771733,1625.1098782519898,6988.077890368024
3.9056250000000006,1164.8061479782257,1162.7823070421323,0.9151290941451937,0.429727601190085,0.06427239880991499,0.48256598208844237,1619.311369946554,6999.824468076501
3.9180238095238096,1169.69539042663,1167.7140971422318,0.923887066665869,0.43056322480978126,0.06343677519021872,0.4848990056151268,1613.7540610405063,7011.630512439725
3.9304226190476195,1174.4341883897812,1172.5001308398223,0.9322452897585148,0.43135023221004815,0.06264976778995185,0.4871360154390294,1608.4504102786611,7023.493602004364
3.942821428571429,1179.0098707137527,1177.1275753922064,0.94018533514166,0.4320874752701407,0.06191252472985932,0.48927149230196026,1603.4121111953962,7035.41110864018
3.9552202380952384,1183.4102383174047,1181.58407550865,0.947690023758501,0.4327739617400032,0.061226038259996805,0.491300213046335,1598.6500646384986,7047.380205474447
3.967619047619048,1187.6236053311002,1185.857801088216,0.9547434490613711,0.4334088657374965,0.0605911342625035,0.49321724854230165,1594.1743639941717,7059.397875729508
3.9800178571428573,1191.6388273889177,1189.9374830835625,0.9613309782134984,0.43399153811010516,0.06000846188989484,0.4950179537608319,1589.994294424469,7071.460922268955
3.992416666666667,1195.4453144985748,1193.8124353878945,0.9674392284157621,0.43452151697970504,0.05947848302029498,0.4966979486639391,1586.1183478889811,7083.565977618696
4.004815476190476,1199.033025081475,1197.4725600926229,0.9730560143426982,0.4349985389924102,0.05900146100758978,0.49825308793710243,1582.5542564989432,7095.70951417991
4.017214285714286,1202.392436405544,1200.9083325593706,0.9781702606344225,0.43542255211598296,0.05857744788401704,0.49967941653130793,1579.30904804486,7107.887854285419
4.029613095238096,1205.5144843381418,1204.110761258966,0.9827718699713928,0.43579373135859617,0.05820626864140381,0.5009731062135432,1576.3891297087239,7120.097179657962
4.042011904761905,1208.3904614007695,1207.0713148426341,0.9868515314000288,0.43611249971593763,0.05788750028406236,0.5021303652716257,1573.8004096896218,7132.333539689028
4.0502777777777785,1210.1668684428387,1208.9065890065083,0.9892769783787558,0.43629622835853116,0.057703771641468886,0.5028241668598817,1572.2613596338917,7140.504124201838
4.058543650793651,1211.8276059481573,1210.6283438778498,0.9914639735768607,0.436457253692881,0.05754274630711896,0.5034543995566872,1570.8736174523285,7148.683676550004
4.066809523809524,1213.370095624996,1212.2342034981161,0.9934099066708318,0.4365959339623995,0.057404066037600524,0.504019760699802,1569.6388395070712,7156.870934231973
4.079208333333334,1215.456156908138,1214.420371527522,0.9958707068021553,0.4367630580253873,0.05723694197461276,0.5047429576894921,1568.0773563608836,7169.163444914199
4.091607142857143,1217.2599070991582,1216.3316306357403,0.9977721484163079,0.43688291526078477,0.05711708473921524,0.505311044784871,1566.870810166349,7181.465930800079
4.0998730158730154,1218.2996215728062,1217.4482873287934,0.9987224414573929,0.43693791585100006,0.057062084148999936,0.5055998615936884,1566.267808504936,7189.670857530797
4.108138888888889,1219.2039530638547,1218.435072997974,0.9994129448233695,0.43697434232686283,0.0570256576731372,0.5058132602360255,1565.8296545262226,7197.8767545538385
4.116404761904762,1219.9675129248174,1219.2882845155564,0.9998376705357622,0.4369939567501527,0.057006043249847316,0.5059473121908147,1565.5601478591789,7206.082158531376
4.120537698412698,1220.294875996998,1219.6637643860513,0.9999491777371232,0.43699832755835627,0.057001672441643725,0.5059832848496132,1565.489391761035,7210.184203735846
4.122604166666666,1220.4449396887646,1219.8386944922681,0.9999802657043867,0.4369994026915265,0.05700059730847353,0.5059934573880386,1565.4696651134652,7212.23497814659
4.12363740079365,1220.5166762830027,1219.9230032542055,0.99998998954439,0.4369997120307603,0.05700028796923968,0.5059966661482057,1565.4634949202468,7213.260292944509
4.124670634920634,1220.5863340219305,1220.0052543178456,0.9999961517452417,0.4369998957295626,0.05700010427043738,0.5059987119425992,1565.459584739712,7214.285555699125
4.125359457671957,1220.631699942575,1220.0589752960534,0.9999984931416525,0.43699996106938843,0.05700003893061158,0.505999493723387,1565.4580990233437,7214.969033982524
4.125531663359787,1220.642918031095,1220.0722700830067,0.9999988846419944,0.436999971571221,0.057000028428778986,0.5059996248669454,1565.4578505995985,7215.139899671493
4.125703869047618,1220.6540899317667,1220.085511724642,0.9999992065403578,0.4369999800695078,0.057000019930492196,0.5059997328319528,1565.4576463412914,7215.310763786648
4.12587607473545,1220.66521756144,1220.0987008290617,0.9999994636177832,0.436999986744827,0.05700001325517299,0.5059998191676186,1565.4574832146473,7215.481626318119
4.12604828042328,1220.676303074757,1220.1118380654816,0.9999996612376272,0.4369999917882795,0.05700000821172051,0.5059998856233119,1565.4573578163868,7215.652487256486
4.1262204861111105,1220.6873489012603,1220.1249241719283,0.9999998054371105,0.43699999540254775,0.05700000459745227,0.5059999341806257,1565.4572663156343,7215.823346592839
4.126392691798942,1220.698357790623,1220.1379599643328,0.9999999030391401,0.4369999978031467,0.05700000219685337,0.5059999670925824,1565.4572043829637,7215.994204318832
4.126564897486773,1220.7093328657204,1220.1509463469586,0.9999999617834795,0.4369999992197641,0.0570000007802359,0.505999986929752,1565.457167107163,7216.165060426774
4.126651000330688,1220.7148088104464,1220.157421318411,0.9999999792765297,0.43699999963481456,0.057000000365185474,0.5059999928437127,1565.4571560070726,7216.250487871769
4.126737103174603,1220.72027769497,1220.1638843259946,0.9999999905068799,0.43699999989839616,0.057000000101603845,0.5059999966432879,1565.4571488809345,7216.335914909706
4.126909308862434,1220.7311964124642,1220.1767750306894,0.9999999994439167,0.437000000104977,0.05699999989502301,0.50599999967014,1565.4571432100015,7216.506767761529
4.126995411706349,1220.7366473930736,1220.183203036614,0.9999999999864442,0.4370000001170907,0.05699999988290933,0.5059999998543134,1565.4571428657446,7216.592193574124
4.127081514550264,1220.7420936518065,1220.1896197040458,1.0000000000476996,0.43700000011824736,0.056999999881752646,0.5059999998753192,1565.4571428268755,7216.677618977098
4.127253720238095,1220.7529726454925,1220.2024194132784,1.0000000000654816,0.4370000001181406,0.05699999988185941,0.5059999998818594,1565.457142815592,7216.848468552231
4.127425925925926,1220.7638338619233,1220.2151748114572,1.0000000000654816,0.43700000011762824,0.05699999988237175,0.5059999998823718,1565.457142815592,7217.0193164830935
4.1277703373015875,1220.7855039647445,1220.2405551177976,1.0000000000654816,0.4370000001166032,0.05699999988339679,0.5059999998833968,1565.457142815592,7217.361007396977
4.128114748677248,1220.807105895737,1220.265765420366,1.0000000000654816,0.4370000001155777,0.0569999998844223,0.5059999998844223,1565.457142815592,7217.702691689247
4.12845916005291,1220.828641530667,1220.29081038399,1.0000000000654816,0.4370000001145517,0.05699999988544828,0.5059999998854483,1565.457142815592,7218.044369331251
4.128803571428572,1220.8501126939118,1220.3156945456828,1.0000000000654816,0.43700000011352524,0.056999999886474736,0.5059999998864747,1565.457142815592,7218.386040295151
4.129147982804233,1220.8715211598706,1220.3404223181508,1.0000000000654816,0.43700000011249834,0.05699999988750166,0.5059999998875017,1565.457142815592,7218.727704553912
4.129492394179895,1220.892868654332,1220.3649979931988,1.0000000000654816,0.43700000011147094,0.056999999888529045,0.5059999998885291,1565.457142815592,7219.069362081272
4.129836805555556,1220.9141568558089,1220.3894257450468,1.0000000000654816,0.4370000001104431,0.0569999998895569,0.5059999998895569,1565.457142815592,7219.411012851729
4.130181216931217,1220.9353873968325,1220.4137096335517,1.0000000000654816,0.43700000010941475,0.05699999989058523,0.5059999998905852,1565.457142815592,7219.752656840514
4.132936507936509,1221.1033376014539,1220.6032534003223,1.0000000000654816,0.43700000010117146,0.056999999898828535,0.5059999998988285,1565.457142815592,7222.485561866097
4.1412023809523815,1221.5920907947634,1221.1341586103667,1.0000000000654816,0.437000000076266,0.05699999992373401,0.505999999923734,1565.457142815592,7230.6815674732425
4.149468253968254,1222.067173338469,1221.6307940954034,1.0000000000654816,0.43700000005110123,0.056999999948898775,0.5059999999488988,1565.457142815592,7238.873379594216
4.157734126984128,1222.5353226891298,1222.109913471143,1.0000000000654816,0.43700000002567924,0.056999999974320745,0.5059999999743208,1565.457142815592,7247.060908655148
4.166,1223.0,1222.5801231492642,1.0000000000654816,0.437,0.057,0.5059999999999999,1565.457142815592,7255.244117304042
