z,T,t,fs,x,y,w,rhob,p
0.0,556.2446552159679,298.0,0.0,0.2264789954663381,0.2675210045336619,0.35471955574852865,2200.0,2040.0
0.0018664874551971326,573.5081364071481,337.7720663574332,3.619788211356298e-07,0.2264791264308,0.2675208735692,0.35471955574852865,2199.999770308925,2043.8572403149094
0.003732974910394265,589.1947396689943,373.65995219686994,1.365255160584794e-06,0.22647948941763316,0.26752051058236687,0.35471955574852865,2199.99913368709,2047.8923442041787
0.00746594982078853,616.5056249169719,435.5984390977398,7.254067669472513e-06,0.22648161999853048,0.2675183800014695,0.35471955574852865,2199.995396983175,2056.4357527554707
0.011198924731182796,639.298722047546,486.7873285233713,2.160991386857064e-05,0.22648681396448384,0.26751318603551616,0.35471955574852865,2199.986287583511,2065.5209315057514
0.01493189964157706,658.4259966464166,529.4046283000209,4.7478155798794495e-05,0.22649617313189163,0.26750382686810836,0.35471955574852865,2199.9698730753676,2075.0552377496397
0.02239784946236559,688.1871320822742,595.1171262313793,0.0001394821085710687,0.2265294602952984,0.2674705397047016,0.35471955574852865,2199.911492624307,2095.169656642573
0.02986379928315412,709.6068371341377,641.9590533390078,0.0002855251918426367,0.22658229889441078,0.2674177011055892,0.35471955574852865,2199.8188220289817,2116.285295016764
0.037329749103942655,725.1721307383558,675.7434612606454,0.00047980253704180966,0.22665258871936952,0.26734741128063055,0.35471955574852865,2199.6955447272812,2138.0488220001557
0.04479569892473118,736.5648297294182,700.3124660871373,0.0007144189568271027,0.22673747327995608,0.26726252672004397,0.35471955574852865,2199.546670553938,2160.207291544157
0.05599462365591398,748.2852078790712,725.3990342238628,0.0011258713544533094,0.22688633735352237,0.2671136626464776,0.35471955574852865,2199.2855863739696,2193.804506710906
0.06719354838709678,755.7704458701161,741.2565818448534,0.001591094450164454,0.22705465574355793,0.26694534425644206,0.35471955574852865,2198.9903823816085,2227.488339653535
0.07839247311827957,760.6064816813278,751.3656606827144,0.0020956443236222746,0.22723720261875816,0.2667627973812418,0.3547195557485287,2198.6702238633334,2261.0162228744944
0.08959139784946236,763.7752582798602,757.866058601713,0.0026297179686247058,0.22743043123727677,0.26656956876272325,0.3547195557485287,2198.331331246709,2294.2464464302448
0.10079032258064516,765.8911788628552,762.0907300054178,0.0031867913119984705,0.22763198117998765,0.2663680188200123,0.3547195557485287,2197.9778443357663,2327.099194928691
0.11198924731182797,767.3411201002738,764.8766865970155,0.003762564368695126,0.22784029670607062,0.26615970329392935,0.35471955574852876,2197.612491655304,2359.532536592146
0.12318817204301076,768.3696004101638,766.7520327611102,0.004354217313587137,0.22805435759870915,0.2659456424012908,0.35471955574852876,2197.2370625052154,2391.5275936534563
0.13438709677419355,769.1314869766526,768.0508879909519,0.004959905638831527,0.2282734965122934,0.2657265034877066,0.35471955574852876,2196.852727304777,2423.0793769856614
0.14558602150537636,769.7249698156511,768.9849537405206,0.0055784239234744765,0.2284972773237759,0.2655027226762241,0.3547195557485288,2196.4602509452443,2454.191125611983
0.15678494623655914,770.2123294044461,769.688455729122,0.0062089841907889114,0.2287254149420351,0.26527458505796486,0.3547195557485288,2196.060133431622,2484.870818634718
0.16798387096774192,770.6330691577567,770.2465109264934,0.006851070701731078,0.22895772277193788,0.2650422772280621,0.35471955574852887,2195.6527020224357,2515.1290346091528
0.17918279569892473,771.0122388695002,770.7130860051475,0.007504345203996305,0.2291940784333103,0.2648059215666897,0.35471955574852887,2195.23817135327,2544.9776465087875
0.19038172043010754,771.3657164500049,771.1223850069053,0.008168585273035859,0.22943440145262842,0.2645655985473716,0.3547195557485289,2194.816682562033,2574.429034316704
0.20158064516129032,771.7035611480164,771.4960759601316,0.008843644264358975,0.22967863877370293,0.26432136122629707,0.354719555748529,2194.3883287009385,2603.495617618836
0.22397849462365593,772.3554732826618,772.1864324640158,0.010225864899522088,0.23017872820204247,0.26382127179795756,0.35471955574852904,2193.5112504699005,2660.5227490750917
0.24637634408602152,772.995741797933,772.843946897395,0.011650565770993321,0.23069418704142286,0.2633058129585772,0.3547195557485291,2192.607216708343,2716.151577383533
0.2687741935483871,773.6354404248781,773.4924432559369,0.01311756660982471,0.23122495007027766,0.2627750499297224,0.35471955574852915,2191.67634180464,2770.467067565821
0.2911720430107527,774.2790073308612,774.1414438248809,0.014626814130326711,0.23177099800976708,0.26222900199023297,0.35471955574852926,2190.7186595708454,2823.5465250535394
0.3135698924731183,774.9282336239435,774.7947621298387,0.016178325671632344,0.2323323371332147,0.2616676628667854,0.3547195557485293,2189.734159004535,2875.460182776945
0.33596774193548384,775.58385882646,775.4539408011709,0.017772164612851582,0.23290899037127422,0.2610910096287258,0.3547195557485294,2188.722799888948,2926.271944802371
0.35836559139784946,776.2462071798896,776.1196229623076,0.01940842908702582,0.23350099322862225,0.2604990067713777,0.35471955574852954,2187.684519954464,2976.040110095067
0.3807634408602151,776.9154406193032,776.7920976339752,0.021087246314172584,0.23410839173364548,0.2598916082663545,0.3547195557485296,2186.6192384745295,3024.818022810817
0.40316129032258063,777.591659010253,777.4715159658555,0.02280876936397819,0.2347312412671781,0.2592687587328219,0.3547195557485297,2185.526858319869,3072.654640079706
0.4255591397849462,778.2749397152891,778.1579766820618,0.02457317501971288,0.23536960578966343,0.2586303942103365,0.3547195557485298,2184.40726731392,3119.595023131434
0.4479569892473118,778.9653531385375,778.851559723196,0.026380662184415076,0.23602355726450894,0.25797644273549103,0.35471955574853,2183.260339244181,3165.680761527362
0.4703548387096774,779.6629687921231,779.552339435029,0.028231450588466475,0.23669317519048513,0.25730682480951483,0.3547195557485301,2182.085934682307,3210.9503403377
0.49275268817204304,780.3678576381028,780.2603897093134,0.030125779689662607,0.23737854620376925,0.25662145379623075,0.3547195557485302,2180.8839016820652,3255.4394589981825
0.5151505376344087,781.0800929747719,780.9757859704538,0.03206390771228452,0.23807976373028036,0.2559202362697196,0.35471955574853037,2179.6540763890825,3299.1813092583393
0.5375483870967742,781.7997507589714,781.6986059323436,0.03404611079554003,0.23879692767758387,0.2552030723224161,0.3547195557485305,2178.396283581196,3342.206818409385
0.5599462365591399,782.5269097134691,782.428929879512,0.036072682232548475,0.2395301441595553,0.25446985584044474,0.35471955574853065,2177.1103371513523,3384.544862935201
0.5823440860215054,783.2616513555141,783.166840767051,0.03814393178636433,0.24027952524891655,0.25372047475108345,0.3547195557485308,2175.796040541618,3426.222456865158
0.604741935483871,784.0040599994445,783.9124242538501,0.04026018507248269,0.2410451887538254,0.2529548112461746,0.354719555748531,2174.4531871350064,3467.2649183992075
0.6271397849462366,784.7542227540133,784.6657687135262,0.0424217829991313,0.2418272580153727,0.2521727419846273,0.3547195557485312,2173.0815606106376,3507.696017796558
0.6495376344086021,785.5122295229684,785.4269652403018,0.044629081257971784,0.24262586172331685,0.2513741382766832,0.35471955574853137,2171.680935266906,3547.5381090448986
0.6719354838709678,786.2781730133979,786.1961076568296,0.04688244985884513,0.2434411337477544,0.25055886625224566,0.3547195557485316,2170.251076316712,3586.812247437157
0.6943333333333334,787.0521487559477,786.9732925274168,0.04918227270301622,0.24427321298471916,0.24972678701528084,0.3547195557485318,2168.791740158249,3625.5382948609113
0.7167311827956989,787.8342551428728,787.7586191794676,0.05152894719005881,0.24512224321395268,0.24887775678604732,0.35471955574853203,2167.302674624457,3663.7350143387907
0.7391290322580645,788.624593494179,788.5521897369555,0.053922883854115373,0.2459883729673025,0.24801162703269752,0.35471955574853226,2165.783619213827,3701.4201551362085
0.76152688172043,789.4232681701603,789.3541091723026,0.05636450602579938,0.2468717554063978,0.24712824459360222,0.35471955574853253,2164.2343053049435,3738.61052956757
0.7839247311827957,790.230386763392,790.1644853878827,0.05885424951651621,0.24777254820843655,0.24622745179156344,0.35471955574853276,2162.654456356792,3775.3220824773744
0.8063225806451613,791.0460604301921,790.9834293470797,0.06139256232251295,0.24869091345910993,0.24530908654089006,0.35471955574853303,2161.043788096552,3811.569954243664
0.8287204301075268,791.8704044713332,791.8110552905849,0.0639799043466072,0.2496270175519237,0.2443729824480763,0.35471955574853337,2159.4020086961773,3847.3685380449533
0.8511182795698925,792.7035393643137,792.6474811021437,0.06661674713642386,0.25058103109349167,0.24341896890650835,0.35471955574853364,2157.7288189384903,3882.731532046509
0.8735161290322581,793.5455926231602,793.4928289401993,0.06930357363933533,0.25155312881487285,0.24244687118512714,0.354719555748534,2156.023912372686,3917.67198709867
0.8959139784946236,794.3967021902828,794.347226348272,0.07204087797660727,0.25254348948985705,0.24145651051014294,0.3547195557485343,2154.2869754576436,3952.202350503401
0.9183118279569893,795.2570226915612,795.2108082366923,0.07482916524335485,0.25355229586258865,0.24044770413741126,0.35471955574853464,2152.5176876888668,3986.3345064069063
0.9407096774193549,796.1267370894601,796.0837204674385,0.07766895134845567,0.2545797345896472,0.2394202654103528,0.35471955574853503,2150.7157217000617,4020.0798134397655
0.9631075268817204,797.0060785930572,796.966126423156,0.0805607629227319,0.25562599620682697,0.23837400379317303,0.3547195557485354,2148.8807433214015,4053.4491403992547
0.9855053763440861,797.8953721805268,797.8582192101875,0.08350513735084553,0.25669127514067724,0.23730872485932278,0.35471955574853586,2147.0124115592876,4086.452901144139
1.0079032258064518,798.7951137514426,798.7602447000287,0.08650262303543803,0.25777576980406813,0.2362242301959318,0.3547195557485363,2145.1103784287416,4119.101090628678
1.0303010752688173,799.7061213271189,799.672545992063,0.08955378010895652,0.25887968285373075,0.23512031714626927,0.35471955574853675,2143.1742885017193,4151.403325473361
1.0526989247311829,800.6298224265744,800.5956519238587,0.09265918203302874,0.26000322176891266,0.23399677823108736,0.35471955574853725,2141.2037778922418,4183.368895242737
1.0750967741935484,801.568789985474,801.5304611356592,0.09581941902356929,0.2611466000905868,0.2328533999094132,0.35471955574853775,2139.1984720830155,4215.006835567093
1.082562724014337,801.8858933091811,801.844920113986,0.09688512218776466,0.26153217303936505,0.232467826960635,0.3547195557485379,2138.522237752341,4225.481547774284
1.0900286738351255,802.205429467972,802.1609439174798,0.09795700963875183,0.26191998347206413,0.23208001652793586,0.3547195557485381,2137.8420792266556,4235.921173489034
1.097494623655914,802.5276972157114,802.4786492707767,0.09903510548712229,0.2623100401119311,0.23168995988806884,0.35471955574853825,2137.157981206757,4246.326042635012
1.1049605734767025,802.8530557120689,802.7981851251428,0.10011943454329682,0.26270235193541225,0.23129764806458775,0.3547195557485385,2136.469927949369,4256.696487631538
1.112426523297491,803.1819332444447,803.1197424654914,0.1012100224920387,0.26309692823529196,0.230903071764708,0.35471955574853864,2135.7779031564087,4267.032844700297
1.1198924731182796,803.514835204802,803.4435667102645,0.10230689612041807,0.2634937787031712,0.23050622129682888,0.3547195557485388,2135.0818898303323,4277.335455319196
1.127358422939068,803.8523500992587,803.769972871925,0.10341008361272845,0.26389291353616795,0.23010708646383207,0.35471955574853903,2134.3818700869974,4287.604667792724
1.1348243727598566,804.1951519349577,804.0993631769311,0.10451961492605373,0.2642943435727988,0.22970565642720123,0.3547195557485392,2133.6778249173503,4297.840838879487
1.1422903225806453,804.5439969616771,804.4322460137084,0.10563552225746016,0.2646980804620088,0.22930191953799117,0.3547195557485394,2132.969733890973,4308.044335381456
1.1497562724014339,804.8997126067859,804.769253847531,0.10675784060625343,0.26510413686659756,0.2288958631334024,0.35471955574853964,2132.257574799306,4318.2155355590085
1.1572222222222224,805.2631767415863,805.1111562418399,0.10788660842058756,0.2655125266971629,0.22848747330283709,0.3547195557485398,2131.5413232453475,4328.354830197791
1.164688172043011,805.6352863520822,805.458862763317,0.10902186829624994,0.2659232653649224,0.22807673463507763,0.35471955574854,2130.8209522002453,4338.4626231288685
1.1721541218637994,806.0169163302269,805.8134100315468,0.11016366766855791,0.2663363700320425,0.22766362996795747,0.35471955574854025,2130.096431564257,4348.539331005726
1.179620071684588,806.4088712707963,806.1759283266723,0.11131205941162768,0.26675185982845523,0.2272481401715448,0.35471955574854047,2129.3677277864904,4358.585382182537
1.1870860215053765,806.8118353519327,806.5475864800127,0.11246710224197617,0.2671697559978813,0.22683024400211868,0.3547195557485407,2128.634803608799,4368.601214622383
1.194551971326165,807.2263268652895,806.9295188628033,0.11362886082550094,0.2675900819365362,0.22640991806346375,0.3547195557485409,2127.8976179978986,4378.5872728837085
1.209483870967742,808.0909473407058,807.7280843575032,0.11597281173574409,0.2684381267717376,0.22556187322826238,0.3547195557485414,2126.41028069031,4398.471855285408
1.2169498207885305,808.5410610702181,808.1461140237296,0.11715515880050381,0.26886590165273155,0.2251340983472684,0.35471955574854164,2125.6600308057027,4408.3712656889875
1.224415770609319,809.0026906495934,808.5771134387566,0.11834452891480093,0.269296217483223,0.22470378251677695,0.3547195557485419,2124.9053244951765,4418.242666512616
1.2318817204301076,809.475356531468,809.0210737589276,0.11954100558813471,0.2697291044770698,0.22427089552293017,0.35471955574854214,2124.1461087683747,4428.0864754519625
1.239347670250896,809.9584546134168,809.4777186617265,0.12074467229161308,0.2701645928342397,0.2238354071657603,0.3547195557485424,2123.3823306593017,4437.903094520535
1.2468136200716846,810.4512997441657,809.94654876277,0.12195561118426099,0.270602712279987,0.22339728772001305,0.3547195557485427,2122.6139380345353,4447.692908304457
1.2542795698924731,810.9531669904228,810.4268973727184,0.12317390203475274,0.27104349167473346,0.2229565083252665,0.35471955574854297,2121.840880277434,4457.4562830780005
1.2617455197132617,811.4633272800886,810.9179888902411,0.12439962137151495,0.27148695870657497,0.22251304129342508,0.35471955574854325,2121.0631088274295,4467.193566682067
1.2692114695340502,811.9810756265202,811.4189930494247,0.1256328418547567,0.2719331396640802,0.22206686033591982,0.3547195557485435,2120.280577578506,4476.905089020675
1.2766774193548387,812.5057514975197,811.92907074341,0.12687363183361508,0.27238205927606607,0.22161794072393393,0.3547195557485438,2119.493243160207,4486.591163013397
1.2841433691756274,813.0367518603924,812.4474095010319,0.1281220550313652,0.2728337405977059,0.22116625940229412,0.3547195557485441,2118.7010651373835,4496.252085847391
1.291609318996416,813.5735379958875,812.9732485057417,0.12937817028982265,0.2732882049180538,0.22071179508194627,0.3547195557485444,2117.904006172381,4505.888140392758
1.2990752688172045,814.1156373990237,813.5058942099415,0.13064203129754548,0.27374547166170765,0.22025452833829234,0.35471955574854475,2117.102032197509,4515.499596671727
1.32147311827957,815.7700323995857,815.1388729111114,0.1344805390789256,0.27513424933817426,0.21886575066182576,0.35471955574854575,2114.6663345027464,4544.1889127782115
1.3438709677419356,817.4608551522488,816.8152671873901,0.13839007128982622,0.27654872375614026,0.2174512762438598,0.3547195557485468,2112.1855687635502,4572.6656148454695
1.3662688172043012,819.1833828634922,818.5272996949975,0.14237066403526566,0.2779889079784535,0.2160110920215465,0.35471955574854797,2109.6597120697365,4600.935643686218
1.3886666666666667,820.934685361961,820.2703339089634,0.14642051404855203,0.27945414958061243,0.2145458504193875,0.3547195557485492,2107.089908671306,4629.004544267423
1.4110645161290323,822.7120623007658,822.0409812110048,0.15053360920429862,0.28094227336694194,0.21305772663305805,0.3547195557485505,2104.479973519478,4656.877538834005
1.4334623655913978,824.5110269754686,823.8349884372191,0.15469418145973932,0.2824475744367246,0.21155242556327533,0.354719555748552,2101.8399121131615,4684.559502816081
1.4409283154121864,825.1140500052041,824.4369543267695,0.15608610073233986,0.2829511728461398,0.21104882715386022,0.3547195557485525,2100.956679681013,4693.745147749107
1.4483942652329749,825.7179103331885,825.040191779424,0.15747725092965226,0.28345449300300146,0.21054550699699856,0.354719555748553,2100.073935260096,4702.910203172157
1.4558602150537634,826.321872492559,825.644083520369,0.15886477442926686,0.2839565010153817,0.21004349898461833,0.35471955574855357,2099.1934921342977,4712.054800105756
1.463326164874552,826.9250053110452,826.2478439380023,0.1602450722811942,0.2844558947779603,0.2095441052220397,0.3547195557485541,2098.3176339916276,4721.179053500992
1.4707921146953407,827.5261550807058,826.8504909718157,0.16161371944706623,0.2849510733054447,0.20904892669455521,0.3547195557485547,2097.4491687085742,4730.283058746299
1.4782580645161292,828.123932030032,827.4508262825027,0.16296544025542745,0.2854401278522592,0.2085598721477408,0.3547195557485553,2096.591443924777,4739.366887862244
1.4857240143369177,828.7167208639972,828.0474323168958,0.16429418668304285,0.28592087023483487,0.20807912976516513,0.35471955574855585,2095.74829737018,4748.430585717137
1.4931899641577064,829.3027262428967,828.6386959449623,0.16559335939348355,0.28639091280369083,0.2076090871963092,0.35471955574855646,2094.923916606575,4757.474166783887
1.500655913978495,829.8800595635215,829.2228662570068,0.1668561889031989,0.28684780634987095,0.20715219365012905,0.3547195557485571,2094.122597161396,4766.497613105759
1.5081218637992835,830.4468632698677,829.7981475799445,0.1680762492797878,0.2872892259617227,0.20671077403827728,0.35471955574855774,2093.3484165641485,4775.50087415378
1.515587813620072,831.0014554549263,830.3628186013352,0.16924802171346764,0.28771317492587123,0.20628682507412877,0.3547195557485584,2092.60487673616,4784.483869061484
1.5230537634408605,831.5424668024461,830.915358429685,0.17036738756813674,0.2881181631138079,0.2058818368861921,0.35471955574855907,2091.89459112855,4793.446491310251
1.530519713261649,832.0689406664264,831.4545556889875,0.17143193700607362,0.2885033186427537,0.20549668135724627,0.3547195557485598,2091.2190888866317,4802.38861542546
1.5379856630824376,832.5803773436442,831.9795804724578,0.1724410334809074,0.2888684112093095,0.20513158879069043,0.35471955574856046,2090.578773926358,4811.310104823402
1.5454516129032259,833.0767203943346,832.4900095812396,0.17339564942058244,0.28921379263931446,0.20478620736068553,0.3547195557485612,2089.973029200523,4820.210819783135
1.5529175627240142,833.5582977846587,832.9858077263668,0.17429804644481967,0.2895402811900601,0.2044597188099399,0.35471955574856195,2089.4004196144856,4829.090624639376
1.5678494623655912,834.4798793001808,833.9349845438047,0.17595939427933466,0.29014135924351836,0.2038586407564817,0.35471955574856345,2088.346223212864,4846.78701490457
1.590247311827957,835.7724205780509,835.2637298112057,0.1781506179649252,0.2909341471475699,0.20306585285243015,0.35471955574856584,2086.9557978747707,4873.172135201582
1.6126451612903225,836.9812702986624,836.5007058410882,0.18006929531494711,0.29162832739255207,0.2023716726074479,0.3547195557485684,2085.7383148671524,4899.364594059414
1.6275770609318998,837.7526882162865,837.2865959569273,0.18123763517512864,0.29205103444663466,0.20194896555336525,0.35471955574857017,2084.996953154159,4916.719033467844
1.6425089605734768,838.5033491538884,838.0488217078448,0.18233925153224317,0.29244960084063987,0.20155039915936018,0.354719555748572,2084.29793036344,4933.987922304506
1.6574408602150539,839.2379106475713,838.7925301314242,0.18338865917462283,0.29282927804601466,0.2011707219539853,0.3547195557485739,2083.6320362397373,4951.171633631902
1.672372759856631,839.9601328414508,839.5219285898662,0.18439741056275724,0.2931942457597015,0.20080575424029856,0.35471955574857583,2082.991940251763,4968.27067210735
1.687304659498208,840.673045151853,840.2404254981003,0.18537474625950656,0.29354784723073046,0.20045215276926945,0.35471955574857783,2082.3717788663603,4985.2856440181085
1.702236559139785,841.3790954947727,840.9507773546746,0.18632811488312476,0.29389277737997765,0.2001072226200224,0.35471955574857994,2081.7668256160196,5002.217233427375
1.717168458781362,842.0802736727483,841.6552200124788,0.1872635742841363,0.2942312279465389,0.19976877205346105,0.3547195557485821,2081.1732365349603,5019.06618347219
1.732100358422939,842.7782094015682,842.3555775421635,0.1881860967216522,0.29456499790096463,0.19943500209903534,0.3547195557485844,2080.587856511681,5035.833281788909
1.7470322580645161,843.4742486434254,843.0533490996413,0.18909980028424522,0.29489557717366655,0.1991044228263335,0.35471955574858666,2080.0080724424915,5052.519349160908
1.7619641577060932,844.1695125356017,843.7497768728458,0.1900081249015246,0.2952242103361609,0.19877578966383905,0.35471955574858904,2079.43170154463,5069.125230651387
1.7694301075268817,844.5171540104012,844.097817992832,0.1904611934639988,0.29538813119846086,0.19861186880153917,0.35471955574859027,2079.144210124516,5077.398370665553
1.7768960573476702,844.8649428166896,844.4458987773844,0.1909139670620091,0.29555194534219037,0.19844805465780962,0.35471955574859154,2078.856905871996,5085.6517886402
1.7843620071684587,845.2129743958488,844.7941237266309,0.19136673990032235,0.29571575921106036,0.19828424078893966,0.35471955574859276,2078.569602101535,5093.885594180197
1.7918279569892472,845.5613369278134,845.1425891529788,0.19181978394241594,0.295879671201851,0.19812032879814903,0.35471955574859404,2078.2821262406537,5102.099897351039
1.799293906810036,845.9101120556059,845.4913840063757,0.19227335109966448,0.2960437724564625,0.19795622754353753,0.35471955574859537,2077.994318440787,5110.29480856527
1.8067598566308245,846.2593756328293,845.8405906697851,0.1927276756413337,0.2962081477338547,0.1977918522661453,0.3547195557485967,2077.706030048046,5118.47043848186
1.814225806451613,846.6091989941496,846.1902860414493,0.19318297901961728,0.29637287715575206,0.19762712284424794,0.35471955574859804,2077.4171205415237,5126.626897921411
1.8216917562724015,846.9596536027829,846.5405446840047,0.19363948970152578,0.29653804338185,0.19746195661814994,0.3547195557485994,2077.127444949109,5134.7642978205995
1.82915770609319,847.3108354042048,846.8914542205838,0.19409755003482704,0.29670377027406697,0.197296229725933,0.3547195557486008,2076.836786036472,5142.882749366728
1.8366236559139786,847.6629945048059,847.2431969134336,0.19455818607251485,0.2968704290598626,0.19712957094013736,0.3547195557486022,2076.544492729015,5150.982365100377
1.844089605734767,848.0170284934353,847.5963732371014,0.19502523667086807,0.29703940864300027,0.1969605913569997,0.35471955574860364,2076.2481291079052,5159.063264474334
1.8478225806451614,848.1952515290598,847.7738629069747,0.1952632403682663,0.29712551872553394,0.1968744812744661,0.35471955574860436,2076.097105561748,5163.096738067382
1.8496890681003584,848.2844594921072,847.8627487403224,0.19538233422039486,0.29716860705377474,0.19683139294622523,0.35471955574860475,2076.0215354085503,5165.111738688303
1.8515555555555556,848.3725502717697,847.9510958862987,0.19549598765857568,0.29720972703236737,0.1967902729676326,0.3547195557486051,2075.9494174311626,5167.125582390673
1.8524887992831542,848.4152929634281,847.9945778418447,0.195546705697743,0.29722807689241737,0.19677192310758265,0.3547195557486053,2075.9172346616806,5168.132068415745
1.8534220430107529,848.4566837205837,848.0373077593885,0.19559119126747745,0.29724417183599705,0.19675582816400294,0.3547195557486055,2075.88900666116,5169.138261336618
1.8552885304659499,848.5359806015238,848.1206487368527,0.19566460274608954,0.29727073221531586,0.19672926778468416,0.35471955574860586,2075.842423931774,5171.149758777137
1.857155017921147,848.6129611727317,848.202214044612,0.1957286775984149,0.29729391458971727,0.1967060854102827,0.3547195557486062,2075.8017656919087,5173.160062418721
1.8590215053763441,848.6891428332113,848.2827575907673,0.195790647310279,0.29731633532125,0.19668366467874998,0.3547195557486066,2075.7624432538864,5175.169168414534
1.8664874551971327,848.9909197891665,848.5982446630501,0.1960385965963056,0.2974060437321576,0.19659395626784237,0.3547195557486081,2075.605108805504,5183.193616450002
1.8814193548387097,849.5873054241684,849.209418036564,0.1965432826225522,0.297588639867631,0.19641136013236898,0.35471955574861114,2075.28486389245,5199.185205956546
1.8888853046594982,849.8840613022732,849.5098332602183,0.19679993223390313,0.2976814960688458,0.19631850393115424,0.35471955574861275,2075.1220087147785,5207.152498620028
1.8963512544802867,850.1807421416311,849.808719074629,0.19705948918717722,0.29777540415058046,0.1962245958494196,0.3547195557486143,2074.9573087040567,5215.100911263752
1.9038172043010753,850.4777603132047,850.1069557131096,0.19732201306190295,0.2978703856687947,0.19612961433120535,0.3547195557486159,2074.7907260545194,5223.030544066391
1.9112831541218638,850.7754019300166,850.4051447950621,0.19758756953787956,0.29796646438653507,0.19603353561346498,0.3547195557486176,2074.6222190895205,5230.941501516208
1.9162604540023895,850.9742777496357,850.6041210467123,0.19776632577823625,0.29803113865327396,0.1959688613467261,0.3547195557486187,2074.508790594033,5236.205150808652
1.921237753882915,851.173565352024,850.8033517426725,0.1979464810951063,0.2980963191079224,0.1959036808920777,0.3547195557486198,2074.3944743245365,5241.460579740533
1.9262150537634408,851.3733004441167,851.0029071297688,0.19812805651618476,0.2981620133583308,0.19583798664166926,0.3547195557486209,2074.2792569380586,5246.707820713693
1.9311923536439666,851.5735120802478,851.20284281702,0.1983110732496887,0.29822822907766283,0.19577177092233716,0.3547195557486221,2074.163124977076,5251.946906264742
1.936169653524492,851.7742241992363,851.403203156588,0.19849555263957,0.29829497398819127,0.1957050260118087,0.3547195557486232,2074.0460648979365,5257.177869006164
1.9411469534050179,851.9754568073953,851.6040238454964,0.19868151613229423,0.2983622558492785,0.19563774415072152,0.35471955574862435,2073.9280630919393,5262.400741581326
1.9461242532855436,852.1772268888903,851.8053339274469,0.19886898525211402,0.2984300824484302,0.19556991755156983,0.3547195557486255,2073.809105901023,5267.615556630182
1.9511015531660691,852.3795491061703,852.0071573328389,0.1990579815825966,0.29849846159461224,0.19550153840538775,0.35471955574862674,2073.689179629489,5272.822346763175
1.956078853046595,852.5824363388566,852.2095140633953,0.19924852675303073,0.29856740111333263,0.1954325988866673,0.3547195557486279,2073.568270552627,5278.021144541433
1.9610561529271207,852.7859000982621,852.412421103273,0.19944064242830786,0.29863690884298066,0.19536309115701936,0.3547195557486291,2073.4463649231348,5283.211982461805
1.9660334528076462,852.9899508463228,852.6158931197887,0.1996343503019132,0.29870699263229045,0.1952930073677095,0.35471955574863034,2073.323448975566,5288.394892945599
1.9710107526881722,853.1945982409051,852.8199430022581,0.1998296720908887,0.2987776603385195,0.19522233966148056,0.35471955574863157,2073.1995089295274,5293.5699083301715
1.975988052568698,853.3998513245411,853.0245822763421,0.2000266295325553,0.29884891982626177,0.19515108017373825,0.3547195557486328,2073.0745309917565,5298.737060862695
1.9809653524492237,853.605718669635,853.2298214226458,0.20022524438248038,0.29892077896671315,0.19507922103328684,0.35471955574863406,2072.9485013574144,5303.896382695602
1.9859426523297492,853.8122084902042,853.4356701216992,0.2004255384134142,0.2989932456372863,0.19500675436271367,0.3547195557486353,2072.8214062107563,5309.047905883308
1.993408602150538,854.123127676784,853.7456057881744,0.20072917559388168,0.29910310200908186,0.1948968979909181,0.3547195557486372,2072.628735406728,5316.760638076929
2.0008745519713265,854.4354912413885,854.0569620002279,0.20103671357608993,0.2992143696965986,0.19478563030340137,0.35471955574863917,2072.433589376818,5324.456002606182
2.008340501792115,854.7493244816603,854.3697659216397,0.20134822606784478,0.29932707536742753,0.1946729246325725,0.35471955574864117,2072.2359213502637,5332.134106363957
2.0158064516129035,855.0646522564202,854.6840436697314,0.2016637868811143,0.29944124572684555,0.19455875427315447,0.35471955574864317,2072.0356844902094,5339.795055719459
2.023272401433692,855.3814991561904,854.9998206837344,0.20198346994439334,0.29955690752228914,0.1944430924777108,0.35471955574864517,2071.832831885856,5347.438956519112
2.0307383512544805,855.6998896198625,855.3171219744588,0.20230734931716376,0.2996740875485863,0.19432591245141365,0.3547195557486472,2071.627316543289,5355.0659140894895
2.038204301075269,856.0198480150073,855.6359722940317,0.20263549920515483,0.2997928126534773,0.19420718734652265,0.35471955574864933,2071.419091375792,5362.676033241582
2.0456702508960576,856.3413986939722,855.9563962520177,0.20296799397718412,0.29991310974370816,0.19408689025629186,0.35471955574865144,2071.208109193163,5370.269418275968
2.053136200716846,856.6645660335969,856.2784183954606,0.2033049081825191,0.30003500579131176,0.19396499420868832,0.3547195557486536,2070.994322690698,5377.846172988577
2.0606021505376346,856.9893744639332,856.6020632646799,0.20364631656859997,0.3001585278400202,0.19384147215997982,0.35471955574865577,2070.7776844379423,5385.406400676854
2.068068100358423,857.315848489757,856.9273554328988,0.203992294099773,0.3002837030120427,0.19371629698795734,0.354719555748658,2070.5581468668042,5392.950204146184
2.0755340501792117,857.6440127071963,857.2543195350169,0.2043429159763759,0.30041055851497034,0.19358944148502968,0.35471955574866026,2070.3356622594474,5400.477685716485
2.083,857.9738918171718,857.5829802891591,0.20469825765443145,0.3005391216489015,0.19346087835109851,0.35471955574866254,2070.1101827357925,5407.988947228932
2.0904659498207887,858.3055106366942,857.9133625134016,0.20505839486560895,0.30066941981366374,0.19333058018633623,0.35471955574866487,2069.881660240848,5415.484090052738
2.0979318996415772,858.6388941088505,858.2454911393444,0.20542340363789038,0.3008014805162913,0.1931985194837087,0.3547195557486672,2069.6500465316026,5422.963215091997
2.1053978494623657,858.9740673119363,858.5793912236218,0.20579336031668585,0.30093533137866396,0.193064668621336,0.3547195557486696,2069.4152931636204,5430.426422792567
2.1128637992831543,859.3110554680535,858.9150879580633,0.20616834158635922,0.3010710001452958,0.19292899985470416,0.35471955574867203,2069.1773514773868,5437.873813148969
2.120329749103943,859.6498839514416,859.252606679037,0.20654842449230607,0.30120851469132254,0.19279148530867748,0.3547195557486745,2068.936172584297,5445.305485711314
2.1277956989247313,859.9905782966395,859.5919728762618,0.2069336864633816,0.3013479030306161,0.1926520969693839,0.354719555748677,2068.6917073524214,5452.721539592243
2.13526164874552,860.3331642066531,859.9332122013709,0.20732420533497006,0.3014891933241313,0.19251080667586867,0.3547195557486795,2068.4439063918758,5460.122073473885
2.1427275985663083,860.6776675610618,860.2763504762797,0.20772005937211716,0.3016324138882751,0.19236758611172491,0.3547195557486821,2068.192720040133,5467.507185614828
2.150193548387097,861.0241144243333,860.621413701598,0.2081213272936995,0.30177759320365105,0.19222240679634894,0.3547195557486847,2067.9380983466926,5474.876973857111
2.1576594982078854,861.3725310540968,860.9684280649975,0.2085280882963752,0.30192475992372486,0.19207524007627516,0.35471955574868735,2067.67999105788,5482.2315356332265
2.165125448028674,861.7229439096045,861.3174199496755,0.20894042207928634,0.30207394288376155,0.19192605711623847,0.35471955574869,2067.418347601175,5489.570967973149
2.1725913978494624,862.0753796602836,861.6684159429022,0.20935840886897594,0.30222517110984054,0.19177482889015943,0.3547195557486928,2067.1531170693975,5496.895367511374
2.180057347670251,862.4298651944592,862.0214428447032,0.20978212944485783,0.302378473828071,0.19162152617192904,0.35471955574869557,2066.8842482045475,5504.204830493989
2.1875232974910395,862.7864276281141,862.3765276766043,0.21021166516460554,0.3025338804737769,0.19146611952622317,0.35471955574869835,2066.6116893816934,5511.499452785759
2.194989247311828,863.1450943138572,862.7336976905415,0.21064709799024303,0.30269142070093724,0.19130857929906278,0.35471955574870123,2066.33538859242,5518.77932987724
2.2024551971326165,863.5058928499641,863.0929803778687,0.21108851051427238,0.3028511243916391,0.19114887560836097,0.3547195557487041,2066.0552934282437,5526.044556891917
2.209921146953405,863.8688510895203,863.4544034784689,0.21153598598599616,0.30301302166560057,0.19098697833439945,0.35471955574870706,2065.771351063914,5533.295228593367
2.224853046594982,864.6013594209998,864.1837831770222,0.21244946221363342,0.3033435186881824,0.19065648131181764,0.3547195557487131,2065.1917112484975,5547.753283354417
2.239784946236559,865.3428475835628,864.9220640292376,0.2133882068183837,0.30368315784621186,0.19031684215378816,0.3547195557487194,2064.5960375648715,5562.15424534509
2.254716845878136,866.0935485312324,865.6694778548746,0.214352912170416,0.3040321896402193,0.18996781035978075,0.35471955574872577,2063.9838906744926,5576.498860454876
2.269648745519713,866.8537002048948,866.4262613586283,0.215344283730966,0.3043908693071017,0.18960913069289825,0.35471955574873243,2063.354822931971,5590.787869512726
2.2845806451612902,867.6235458437073,867.1926564420057,0.21636304091852399,0.30475945713351127,0.18924054286648873,0.35471955574873926,2062.7083778354427,5605.022008523653
2.2995125448028673,868.4033342993562,867.9689105184483,0.21740991797312226,0.30513821876855546,0.18886178123144462,0.35471955574874636,2062.044089478141,5619.202008907421
2.3144444444444443,869.1933203521108,868.7552768306983,0.21848566481459675,0.30552742553431717,0.18847257446568286,0.35471955574875363,2061.3614820037888,5633.328597739337
2.3293763440860213,869.9937650278571,869.5520147695476,0.2195910478918422,0.30592735473311705,0.18807264526688297,0.3547195557487612,2060.6600690677164,5647.4024979931355
2.3443082437275984,870.8049359158679,870.3593901935611,0.22072685102223105,0.30633828995121604,0.18766171004878396,0.35471955574876896,2059.9393533042075,5661.4244287859365
2.3592401433691754,871.6271074864324,871.1776757489939,0.2218938762175541,0.306760521357642,0.18723947864235807,0.354719555748777,2059.19882580241,5675.395105625231
2.3741720430107525,872.4605274028978,872.0071278660961,0.22309280386484712,0.30719429511741003,0.18680570488258993,0.35471955574878533,2058.438054827589,5689.3152403103795
2.3891039426523295,873.3055137545532,872.8480447517117,0.2243246187658972,0.30763996753323375,0.18636003246676633,0.35471955574879394,2057.656415480805,5703.185541200414
2.396569892473118,873.7324406737351,873.272899165141,0.22495313707392028,0.30786736636765855,0.18613263363234145,0.3547195557487983,2057.2575936778658,5710.10222478916
2.4040358422939065,874.1623739268912,873.7007349563154,0.22559020731590795,0.30809785930418165,0.18590214069581834,0.3547195557488028,2056.853345306314,5717.006714582926
2.411501792114695,874.5953519111131,874.1315904962441,0.22623593980500095,0.3083314862542571,0.18566851374574292,0.35471955574880737,2056.443600367735,5723.899098469084
2.418967741935484,875.0314134978522,874.5655045346318,0.2268904463064739,0.30856828765472316,0.18543171234527686,0.35471955574881203,2056.028287942272,5730.779464187768
2.433899641577061,875.9129455326887,875.4426653733453,0.22822623576796336,0.3090515782171494,0.18494842178285062,0.3547195557488215,2055.1806722808374,5744.504491392338
2.448831541218638,876.8072915951682,876.3325371066894,0.22959849950725494,0.3095480652261274,0.1844519347738726,0.35471955574883135,2054.309912126954,5758.1824954662015
2.463763440860215,877.7147823423127,877.2354481051227,0.23100818566527453,0.31005809172041787,0.18394190827958218,0.35471955574884156,2053.415405844569,5771.814173827684
2.478695340501792,878.6357579434937,878.1517360671546,0.2324562672895301,0.3105820097500188,0.18341799024998123,0.3547195557488521,2052.4965359933376,5785.400222307755
2.4936272401433692,879.5705684246267,879.081748437608,0.2339437429147424,0.3111201805862388,0.18287981941376116,0.354719555748863,2051.552668960185,5798.941335416818
2.5085591397849463,880.5195739844892,880.0258427559951,0.23547163714953082,0.31167297493396096,0.18232702506603907,0.3547195557488743,2050.5831545870305,5812.438206613357
2.5234910394265233,881.4831453029184,880.9843869786571,0.23704100126752,0.31224077314550547,0.1817592268544945,0.35471955574888603,2049.587325795704,5825.891528574069
2.5384229390681003,882.4616638494225,881.9577597935623,0.23865291380153528,0.3128239654356113,0.18117603456438872,0.3547195557488982,2048.5644982109056,5839.301993465356
2.5533548387096774,883.4555221958658,882.9463509359276,0.2403084811396144,0.3134229520970733,0.1805770479029267,0.3547195557489108,2047.5139697820086,5852.670293216247
2.5682867383512544,884.4651243347482,883.9505615081304,0.24200883812151194,0.3140381437165588,0.17996185628344122,0.35471955574892383,2046.4350204045525,5865.997119792858
2.5832186379928315,885.4908860036572,884.9708043053536,0.24375514863426234,0.3146699613900831,0.17933003860991695,0.3547195557489374,2045.3269115423334,5879.283165474537
2.5981505376344085,886.5332350160359,886.0075041474904,0.2455486062052272,0.3153188369375747,0.17868116306242537,0.3547195557489514,2044.1888858510888,5892.529123131811
2.613082437275986,887.5926115981911,887.0610982174264,0.24739043459088633,0.31598521311590094,0.1780147868840991,0.354719555748966,2043.0201668048858,5905.735686506308
2.628014336917563,888.6694687323336,888.1320364055991,0.2492818883594454,0.31666954382965623,0.17733045617034382,0.3547195557489812,2041.8199583264307,5918.903550492757
2.64294623655914,889.7642725053283,889.2207816606193,0.25122425346512317,0.31737229433893993,0.1766277056610601,0.3547195557489969,2040.5874444226592,5932.033411423205
2.657878136200717,890.8775024627155,890.3278103456247,0.25321884781173704,0.31809394146326253,0.17590605853673746,0.35471955574901326,2039.321788827118,5945.125967353569
2.672810035842294,892.0096519674055,891.4536125999465,0.2552670218029267,0.31883497378061737,0.1751650262193827,0.35471955574903025,2038.0221346508229,5958.181918352624
2.687741935483871,893.1612285622186,892.5986927055324,0.2573701588760069,0.319595891820629,0.17440410817937102,0.3547195557490479,2036.6876040435075,5971.201966793495
2.7026738351254482,894.3327543350816,893.7635694574088,0.2595296760159952,0.32037720825052973,0.17362279174947026,0.3547195557490663,2035.3172978674504,5984.1868176477365
2.7176057347670253,895.5247662850958,894.9487765372156,0.26174702424574287,0.32117944805248944,0.17282055194751056,0.35471955574908537,2033.9102953864656,5997.137178782025
2.7325376344086023,896.737816686677,896.1548628884548,0.2640236890871791,0.3220031486904942,0.17199685130950587,0.3547195557491053,2032.4656539732239,6010.053761257421
2.740003584229391,897.3524081577499,896.7659116012187,0.2651847390024303,0.32242321823193093,0.17157678176806906,0.35471955574911557,2031.7289180427151,6016.499608652538
2.7474695340501794,897.9724810858854,897.3823920973406,0.26636122476484864,0.32284886026333864,0.17115113973666143,0.3547195679710233,2030.982387405642,6022.937279629143
2.754935483870968,898.59901856986,898.004488338235,0.2675569273989647,0.3232801450401248,0.17071985495987516,0.35472089013957364,2030.2236628398969,6029.36686772976
2.7624014336917564,899.2332888107994,898.6330833513304,0.268775485330105,0.3237171429466158,0.1702828570533842,0.3547247682579951,2029.450435608677,6035.78848168038
2.769867383512545,899.875793341669,899.2690491715191,0.2700173555151868,0.32415992723285086,0.16984007276714913,0.3547312944039228,2028.6624157532347,6042.202238473328
2.7773333333333334,900.526931616296,899.9130210941577,0.27128301758161655,0.3246085738661331,0.1693914261338669,0.3547405661399443,2027.859298929425,6048.608259415092
2.784799283154122,901.1870397426339,900.565484467909,0.27257297057005214,0.3250631609487204,0.16893683905127965,0.35475268591743486,2027.0407684745633,6055.006669163909
2.7922652329749105,901.8564154558234,901.2268305826539,0.2738877309631065,0.3255237683438337,0.1684762316561663,0.35476776073733085,2026.2064966582961,6061.39759513387
2.799731182795699,902.535334236578,901.8973926671014,0.2752278315475067,0.3259904774354288,0.16800952256457125,0.35478590197868654,2025.356145404612,6067.781167134793
2.8071971326164875,903.2240597336433,902.5774690914548,0.2765938208163207,0.32646337097333333,0.16753662902666663,0.3548072253372607,2024.4893666711523,6074.157517163795
2.814663082437276,903.9228505227582,903.2673383436963,0.2779862627206182,0.3269425329721614,0.16705746702783852,0.35483185083675334,2023.605802606794,6080.526779294708
2.8221290322580646,904.6319645083229,903.9672687196173,0.27940573664602325,0.32742804864312613,0.1665719513568739,0.3548599028885097,2022.705085566528,6086.889089630697
2.829594982078853,905.3516618055004,904.6775246176916,0.280852837531736,0.32792000434456203,0.16607999565543805,0.3548915103840597,2021.7868380359337,6093.244586297826
2.8370609318996416,906.0822066377063,905.3983706542942,0.2823281760758751,0.3284184875409465,0.16558151245905345,0.3549268068103898,2020.8506725008824,6099.593409465284
2.84452688172043,906.8238685878987,906.1300743797813,0.2838323789865265,0.32892358676225675,0.16507641323774322,0.3549659303814166,2019.896191288235,6105.935701382884
2.8519928315412186,907.576923412979,906.8729080958404,0.285366089245714,0.3294353915560261,0.16456460844397394,0.35500902418143443,2018.922986398341,6112.271606429743
2.859458781362007,908.3416535436058,907.6271500940126,0.2869299663551878,0.3299539924235979,0.1640460075764021,0.3550562363177886,2017.9306393490751,6118.601271169823
2.8669247311827957,909.1183483295981,908.3930855187295,0.2885246865288162,0.33047948072963845,0.1635205192703615,0.35510772008096997,2016.9187210537577,6124.924844411197
2.874390681003584,909.9073040417027,909.171006982579,0.29015094278565146,0.3310119485695032,0.16298805143049674,0.35516363411092045,2015.8867917620992,6131.242477266222
2.881856630824373,910.7088235940331,909.9612150119074,0.29180944487827615,0.3315514885716388,0.16244851142836117,0.3552241425687058,2014.8344011056677,6137.554323209797
2.8893225806451612,911.5232158987208,910.7640183676685,0.2935009189587603,0.3320981936003154,0.16190180639968463,0.355289415312927,2013.7610883098541,6143.860538132201
2.8967885304659498,912.3507946945524,911.579734263245,0.29522610683266076,0.3326521563050869,0.1613478436949131,0.3553596280803553,2012.666382667241,6150.161280381711
2.9042544802867383,913.1918765900633,912.4086884836336,0.29698576456867565,0.3332134684333698,0.16078653156663014,0.35543496267032443,2011.5498044198366,6156.4567107900075
2.9117204301075272,914.0467779071995,913.2512153958593,0.29878066009952586,0.3337822197747472,0.16021778022525276,0.35551560713242253,2010.4108662814178,6162.746992669831
2.919186379928316,914.9158096707325,914.1076578262529,0.3006115692386133,0.3343584965292675,0.1596415034707325,0.3556017559570139,2009.2490759651325,6169.032291768685
2.9266523297491047,915.7992697083469,914.9783667630737,0.30247926919900536,0.33494237876971966,0.15905762123028036,0.35569361026812324,2008.0639402959796,6175.312776153509
2.9341182795698932,916.6974302232779,915.8637008164969,0.30438452815938055,0.3355339364717614,0.15846606352823867,0.35579137801825184,2006.8549718316663,6181.5886159871525
2.9415842293906813,917.6105182456365,916.7640253160837,0.3063280885543477,0.33613322327192013,0.15786677672807986,0.3558952741847891,2005.621699465614,6187.859983135257
2.94905017921147,918.5386848636477,917.6797108052476,0.30831064038821065,0.336740266614699,0.157259733385301,0.3560055209677889,2004.3636853605208,6194.127050507007
2.9565161290322584,919.481956803202,918.6111303869989,0.3103327787138424,0.33735505216968525,0.1566449478303148,0.35612234798865555,2003.0805519298362,6200.389990977913
2.963982078853047,920.4401604198347,919.5586545812034,0.3123949361429619,0.33797749921626197,0.15602250078373806,0.35624599248755257,2001.7720246628846,6206.648975656931
2.9714480286738354,921.4128032212295,920.5226402987158,0.3144972765714197,0.33860742200625915,0.1553925779937409,0.3563766995104061,2000.437999560724,6212.904171129675
2.9789139784946244,922.3988919360556,921.5034053609347,0.3166395304154677,0.33924447000714697,0.154755529992853,0.3565147220539555,1999.0786476857966,6219.155735120117
2.986379928315413,923.3966610526696,922.5011675866272,0.3188207465008954,0.33988803812786783,0.1541119618721322,0.3566603210730509,1997.6945725989033,6225.403809762399
2.9938458781362014,924.4031887246866,923.5159002094917,0.3210389378860103,0.34053713897013205,0.153462861029868,0.3568137650875989,1996.287035099703,6231.64851140566
3.0013118279569895,925.4139050595196,924.5470044697003,0.3232906245718563,0.3411902388236088,0.1528097611763912,0.3569753287392662,1994.8582433966756,6237.889915756421
3.0062891278375155,926.086820790863,925.2426750402008,0.3248077574424854,0.34162678284472586,0.15237321715527413,0.35708768558873877,1993.8955575702812,6242.049030686231
3.0112664277180414,926.7560602241138,925.943768836559,0.32633523068501025,0.3420632551675126,0.1519367448324874,0.35720385529807464,1992.9263103347603,6246.206672826725
3.016243727598567,927.418557101886,926.6485219113082,0.32787044604450866,0.3424986379306849,0.15150136206931517,0.3573239156761625,1991.9521503942146,6250.3628062283215
3.021221027479093,928.0708972936209,927.354278284357,0.3294104914491482,0.3429318057635507,0.1510681942364493,0.3574479385018866,1990.974925583025,6254.517371777769
3.026198327359618,928.7095520963152,928.0573680889215,0.3309523638479037,0.3433616100663955,0.1506383899336045,0.3575759858667498,1989.9965414657688,6258.670285595119
3.031175627240144,929.3312151811431,928.7531902229496,0.3324932897241394,0.34378699895427506,0.15021300104572488,0.3577081061933593,1989.0187579576168,6262.821439499399
3.0386415770609325,930.2261939913623,929.7720028898949,0.33479836607534136,0.34441509824435085,0.1495849017556492,0.35791398686670356,1987.5560882237926,6269.044582943978
3.046107526881721,931.0721638480807,930.7465125953204,0.33709318214715633,0.3450302281567689,0.1489697718432311,0.35812912473375824,1986.0999290769657,6275.262977611037
3.0535734767025096,931.8699098330019,931.6657916027169,0.33937948259318196,0.34563307559990525,0.14836692440009477,0.3583534641043468,1984.6491734596575,6281.4761103176925
3.0610394265232976,932.6250852137733,932.5270134234355,0.34166309150645074,0.34622585232260167,0.1477741476773983,0.35858690039492447,1983.2001257352351,6287.683506847715
3.0660167264038236,933.1090352988957,933.070912781498,0.34318784584971435,0.34661688850947775,0.14738311149052227,0.35874752253847914,1982.2326037578198,6291.818385876487
3.0709940262843496,933.580625286129,933.5935150094772,0.3447172838509255,0.34700565362967045,0.14699434637032952,0.3589121103029482,1981.2621097987083,6295.950445813411
3.075971326164875,934.0425932521656,934.0979035750111,0.34625365165981314,0.34739297907301936,0.14660702092698064,0.35908064495871805,1980.2872185796346,6300.079614223713
3.0809486260454,934.4974902576851,934.5873188761981,0.347798948405409,0.3477795967424486,0.1462204032575514,0.35925311789064485,1979.3066615675507,6304.205837725122
3.085925925925926,934.9476068578856,935.064919184783,0.34935489314848994,0.34816612658237156,0.14583387341762843,0.35942953111299464,1978.3193479447195,6308.329080273878
3.0909032258064517,935.3949446950147,935.5336314568539,0.3509229299626039,0.34855307864133783,0.1454469213586622,0.3596098970451197,1977.3243613845864,6312.449321111844
3.09836917562724,936.0644179047879,936.2256690693646,0.35330021419776925,0.34913517241814274,0.14486482758185726,0.35988790814876614,1975.815872653764,6318.624040651416
3.1058351254480283,936.7361239538876,936.9109427742618,0.35571052408432285,0.3497201586809288,0.1442798413190712,0.3601749754949508,1974.2864277317506,6324.792011233889
3.113301075268817,937.4136298873219,937.5952702039842,0.3581562390946944,0.3503087506592808,0.14369124934071917,0.36047124675066117,1972.7345167413123,6330.953295322404
3.120767025089606,938.0996208248332,938.283094997359,0.3606391789360902,0.35090142931168894,0.14309857068831103,0.3607768993301107,1971.158985000239,6337.10798759217
3.128232974910394,938.7961178537952,938.977762665726,0.3631607872125622,0.3514985158635647,0.14250148413643535,0.36109213430592535,1969.5589164798916,6343.256206600047
3.1356989247311824,939.5046572917756,939.6817797417413,0.365722263250015,0.3521002243670456,0.14189977563295447,0.36141717154381736,1967.9335501565834,6349.398088620271
3.143164874551971,940.226430179276,940.3970323248001,0.36832465268491216,0.352706698204643,0.14129330179535698,0.3617522459740629,1966.2822225291654,6355.533783203369
3.1506308243727594,940.9623868885043,941.1249592832272,0.37096890787624404,0.3533180347201811,0.14068196527981883,0.36209760481770026,1964.6043292850427,6361.663450045982
3.158096774193548,941.7133135170092,941.8666840439087,0.3736559273014633,0.3539343014910184,0.14006569850898165,0.3624535055678149,1962.8993003017656,6367.787256827499
3.1655627240143365,942.4798865570336,942.6231119953999,0.3763865807817812,0.35455554690004193,0.1394444530999581,0.36282021454409435,1961.1665836404977,6373.90537774348
3.173028673835125,943.262711388373,943.395000899797,0.3791617253666673,0.3551818069062159,0.1388181930937841,0.363198005869314,1959.4056354666195,6380.017992532301
3.180494623655914,944.0623490178417,944.1830109005165,0.38198221516405595,0.3558131093221475,0.1381868906778525,0.36358716074835484,1957.6159138120424,6386.125285845715
3.187960573476702,944.8793344404122,944.9877395219007,0.38484890729704746,0.35644947647859754,0.13755052352140246,0.3639879669588355,1955.7968747954246,6392.227446856295
3.1954265232974906,945.7141891194478,945.8097458603386,0.3877626654068311,0.35709092685709565,0.13690907314290438,0.3644007184858599,1953.9479703994195,6398.324669026166
3.202892473118279,946.5674293916383,946.6495671227611,0.3907243616115402,0.35773747606899936,0.13626252393100058,0.3648257152516745,1952.0686472276943,6404.417149984515
3.210358422939068,947.4395720780717,947.507729822862,0.39373487749563246,0.35838913742428946,0.1356108625757106,0.3652632629048329,1950.1583458771286,6410.505091477758
3.2178243727598566,948.3311381968483,948.3847572919419,0.3967951044875569,0.35904592224480164,0.13495407775519838,0.3657136726436033,1948.216500698167,6416.588699367736
3.225290322580645,949.2426553945083,949.281174672626,0.39990594384507333,0.35970784001923384,0.13429215998076613,0.3661772610556512,1946.2425398041362,6422.668183661424
3.2327562724014336,950.1746595166584,950.1975122072423,0.40306830638028823,0.3603748984605261,0.13362510153947385,0.36665434996117624,1944.2358852457194,6428.743758560939
3.240222222222222,951.1276956008543,951.1343073777433,0.40628311200205725,0.3610471035029489,0.1329528964970511,0.3671452662502648,1942.195953301323,6434.815642526432
3.24768817204301,952.1023184802252,952.0921062746764,0.4095512891198485,0.36172445926164365,0.1322755407383564,0.36765034170766586,1940.1221548553508,6440.884058346911
3.2551541218637987,953.0990931219164,953.071464448281,0.41287377393269353,0.3624069679683078,0.13159303203169215,0.36816991281984796,1938.0138958493947,6446.949233215615
3.2626200716845872,954.1185947809919,954.0729474094567,0.4162515096144978,0.3630946298911556,0.13090537010884445,0.36870432056028263,1935.870577799189,6453.011398807666
3.270086021505376,955.1614090213918,955.0971308904976,0.4196854453995989,0.36378744324390394,0.13021255675609605,0.369253910149611,1933.6915983748659,6459.070791358445
3.277551971326165,956.2281316362761,956.1446009365905,0.4231765355680637,0.3644854040865029,0.12951459591349718,0.3698190307877942,1931.476352044825,6465.127651741489
3.2850179211469537,957.3193684873622,957.2159538731634,0.4267257383276364,0.3651885062191129,0.12881149378088705,0.3704000353556216,1929.2242307851864,6471.182225545091
3.292483870967742,958.435735274541,958.3117961770183,0.4303340145877103,0.36589674107012654,0.12810325892987345,0.3709972800831115,1926.9346248577585,6477.234763146836
3.2999498207885303,959.5778572415777,959.432744267897,0.43400232661978844,0.36661009757860924,0.12738990242139073,0.3716111241824222,1924.606923660032,6483.285519785483
3.3074157706093192,960.7463688201577,960.5794242297304,0.43773163659836034,0.36732856207130504,0.1266714379286949,0.372241929442934,1922.2405166510578,6489.334755629628
3.3148817204301078,961.9419132121809,961.7524714659922,0.4415229050157839,0.36805211813421174,0.1259478818657882,0.3728900597861757,1919.83479435727,6495.382735842533
3.3223476702508963,963.1651419086844,962.9525302904117,0.4453770889645849,0.36878074647866305,0.12521925352133695,0.37355588077827623,1917.3891494624438,6501.42973064265
3.329813620071685,964.41671414274,964.18025345223,0.44929514028046874,0.36951442480181323,0.12448557519818679,0.37423975909761836,1914.9029779860305,6507.476015359167
3.3372795698924733,965.6972962729923,965.4363015938189,0.45327800353932385,0.370253127641406,0.123746872358594,0.3749420619553834,1912.375680554147,6513.52187048205
3.344745519713262,967.007561094031,966.7213426375613,0.45732661390152196,0.3709968262247032,0.12300317377529683,0.37566315646668674,1909.80666376746,6519.56758170589
3.3522114695340504,968.3481870694701,968.0360510982858,0.46144189479691966,0.37174548831145204,0.12225451168854796,0.3764034089700411,1907.195341670149,6525.61343996694
3.359677419354839,969.7198574833856,969.3811073171264,0.4656247554441277,0.3724990780307801,0.12150092196921985,0.37716318429292967,1904.541137324039,6531.659741472591
3.3671433691756274,971.1232595056199,970.7571966123893,0.46987608819785115,0.37325755571191743,0.12074244428808262,0.3779428449613475,1901.8434844918263,6537.706787722573
3.374609318996416,972.5590831663753,972.165008342825,0.47419676571841657,0.3740208777086628,0.11997912229133718,0.37874275035126603,1899.1018294331338,6543.754885521085
3.3820752688172044,974.028020235483,973.605234878582,0.47858763795800746,0.37478899621753176,0.11921100378246827,0.3795632557801015,1896.3156328168745,6549.804346979042
3.389541218637993,975.5307630017559,975.0785704750568,0.4830495289586279,0.375561859089542,0.11843814091045803,0.3804047115364269,1893.4843717530812,6555.855489505549
3.3970071684587815,977.0680029478918,976.5857100448626,0.48758323345741883,0.37633940963562407,0.11766059036437593,0.3812674618463607,1890.6075419469769,6561.908635787735
3.40447311827957,978.640429316518,978.1273478231744,0.4921895132956691,0.3771215864256691,0.11687841357433089,0.3821518437752938,1887.684659977614,6567.964113757967
3.4119390681003585,980.2487275631327,979.7041759218268,0.4968690936287038,0.3779083230812614,0.11609167691873859,0.38305818606388914,1884.7152657028605,6574.022256547478
3.419405017921147,981.8935776919404,981.3168827676906,0.5016226589347976,0.3786995480621801,0.11530045193781988,0.38398680789759904,1881.6989247919164,6580.083402425386
3.4268709677419356,983.5756524708606,982.9661514210856,0.5064508488223713,0.3794951844467949,0.1145048155532051,0.38493801760930707,1878.6352313858274,6586.147894722052
3.434336917562724,985.295615522366,984.6526577702746,0.5113542536359674,0.38029514970652595,0.11370485029347405,0.38591211131510395,1875.5238108856797,6592.216081735684
3.4418028673835126,987.0541192872392,986.3770685984421,0.516333409862909,0.381099355474589,0.112900644525411,0.3869093714836644,1872.364322867276,6598.288316621076
3.449268817204301,988.8518028588504,988.140039520005,0.5213887953440697,0.38190770730929957,0.11209229269070044,0.38793006544019354,1869.1564641201016,6604.364957259345
3.4567347670250896,990.6892896861659,989.9422127836185,0.5265208242939046,0.3827201044522705,0.11127989554772955,0.3889744438064684,1865.8999718073335,6610.446366107513
3.464200716845878,992.5671851443768,991.7842149398521,0.5317298421367149,0.3835364395819002,0.11046356041809977,0.3900427388791031,1862.5946267424486,6616.532910026742
3.4716666666666667,994.4860739728167,993.6666543722027,0.5370161201681366,0.3843565985626188,0.10964340143738122,0.3911351629488219,1859.2402567767388,6622.624960088078
3.479132616487455,996.4465175807044,995.5901186909142,0.5423798500529695,0.38518046019043023,0.10881953980956979,0.39225190656422276,1855.8367402906742,6628.722891354502
3.4865985663082437,998.4490512222064,997.555171989954,0.5478211381727459,0.38600789593537116,0.10799210406462886,0.3933931367442618,1852.384009780614,6634.8270826381195
3.4940645161290322,1000.4941810433719,999.5623519684958,0.5533399998388306,0.38683876968158537,0.10716123031841467,0.39455899514446924,1848.8820555308405,6640.937916231353
3.5015304659498208,1002.5823810046334,1001.6121669193388,0.5589363533893504,0.38767293746580317,0.10632706253419681,0.3957495961827305,1845.330929359312,6647.055777611002
3.5089964157706093,1004.7140896838016,1003.7050925878914,0.5646100141908375,0.3885102472151052,0.10548975278489482,0.3969650251313089,1841.730748423877,6653.18105511409
3.516462365591398,1006.8897069657975,1005.8415689066171,0.5703606885681339,0.3893505384849444,0.10464946151505566,0.39820533618265397,1838.0816990740088,6659.314139584463
3.5239283154121863,1009.109590626755,1008.0219966112292,0.5761879676887878,0.39019364219849967,0.10380635780150028,0.3994705504974132,1834.3840407314203,6665.4554239891595
3.531394265232975,1011.3740528215885,1010.2467337463628,0.5820913214308711,0.3910393803885344,0.10296061961146556,0.4007606542439418,1830.6381097811939,6671.605303003658
3.5388602150537634,1013.6833564856266,1012.5160920699965,0.5880700922658164,0.3918875659430342,0.1021124340569658,0.4020755966394659,1826.8443234533852,6677.764172565211
3.546326164874552,1016.0377116624758,1014.8303333674816,0.5941234891904635,0.39273800235600587,0.10126199764399418,0.4034152880038893,1823.0031836733995,6683.932429393513
3.553792114695341,1018.4372717718494,1017.189665687683,0.6002505817449931,0.3935904834849189,0.10040951651508115,0.40477959783803164,1819.11528085787,6690.11047047816
3.561258064516129,1020.8821298326934,1019.5942395154162,0.6064502941557482,0.39444479331637716,0.09955520668362283,0.4061683529388215,1815.1812976312854,6696.298692532411
3.5687240143369174,1023.3723146585138,1022.0441438960453,0.6127213996440812,0.39530070574170817,0.0986992942582918,0.40758133556463927,1811.2020124372743,6702.4974914129725
3.576189964157706,1025.9077870433468,1024.5394025297965,0.6190625149442097,0.39615798434425387,0.09784201565574616,0.40901828166457926,1807.1783030172585,6708.7072615056
3.583655913978495,1028.4884359583127,1027.079969854995,0.6254720950746672,0.39701638220024327,0.09698361779975671,0.41047887918587905,1803.111149728192,6714.928395076612
3.591121863799284,1031.11407478008,1029.6657271410206,0.6319484284091208,0.3978756416952124,0.0961243583047876,0.41196276647411584,1799.0016386703383,6721.161281590483
3.5985878136200724,1033.7844375738784,1032.2964786133075,0.6384896320931815,0.39873549435801653,0.0952645056419835,0.41346953078098864,1794.850964595501,6727.4063069939375
3.606053763440861,1036.4991754548475,1034.9719476341031,0.6450936478541952,0.3995956607145533,0.0944043392854467,0.4149987068945713,1790.6604335658906,6733.663852967224
3.613519713261649,1039.257853052521,1037.6917729639856,0.6517582382509133,0.4004558501633729,0.09354414983662716,0.41654977590682857,1786.4314653338704,6739.9342961433495
3.6209856630824375,1042.0599451040682,1040.4555051302289,0.6584809834093406,0.4013157608754022,0.0926842391245978,0.4181221641329161,1782.1655954131986,6746.218007296445
3.628451612903226,1044.904833202511,1043.2626029290232,0.6652592782898983,0.4021750797200444,0.09182492027995562,0.419715242196337,1777.8644768131326,6752.515350500546
3.6359175627240146,1047.7918027265416,1046.1124300892482,0.6720903305293423,0.40303348221993374,0.09096651778006629,0.4213283242933898,1773.529881407824,6758.826682260408
3.643383512544803,1050.7200399786784,1049.0042521259372,0.6789711588985948,0.4038906325366315,0.09010936746336848,0.4229606676495136,1769.1637009148888,6765.152350616158
3.650849462365592,1053.6886295583856,1051.937233411763,0.6858985924148052,0.40474618348953223,0.08925381651046779,0.4246114721791247,1764.7679474588456,6771.492694223921
3.6583154121863806,1056.696551996366,1054.9104344947589,0.6928692701425446,0.4055997766102157,0.08840022338978432,0.42627988035933567,1760.3447536972637,6777.848041414708
3.665781362007169,1059.7426816755558,1057.9228096901084,0.6998796417151045,0.40645104223442974,0.08754895776557026,0.4279649773265799,1755.8963724899784,6784.218709234221
3.673247311827957,1062.8257850633615,1060.9732049731022,0.7069259686024018,0.40729959963380835,0.08670040036619163,0.42966579120362286,1751.4251760945501,6790.60500246635
3.68444623655914,1067.5167981281586,1065.6172897691063,0.7175542397658753,0.4085664982175357,0.08543350178246428,0.43224421652489725,1744.681082543991,6800.214373829928
3.695645161290323,1072.2829558500146,1070.339311109354,0.7282405217055158,0.40982505318410195,0.08417494681589809,0.43485197384619484,1737.9001786697772,6809.860477718572
3.7068440860215057,1077.1186962196446,1075.1339592725867,0.7389699010179933,0.4110738461648483,0.08292615383515167,0.4374850858452434,1731.0919276654683,6819.544157077744
3.7180430107526887,1082.0178940643016,1079.9953504139505,0.7497266041914366,0.41231140951599193,0.08168859048400808,0.44013931328637873,1724.2663385003539,6829.2661674107485
3.7255089605734772,1085.3160023284495,1083.2701926487055,0.7569047604772966,0.413129467334435,0.08087053266556504,0.44191832281174953,1719.7114907017065,6835.769132908244
3.7329749103942653,1088.6372384634144,1086.5697882594663,0.764082600413966,0.41394140317829564,0.0800585968217044,0.44370333985610716,1715.1568436401778,6842.289600736443
3.7379522102747913,1090.8631512967418,1088.7822070522857,0.7688650664431204,0.41447906235936,0.07952093764064004,0.44489598381314566,1712.1221639818496,6846.646377523174
3.7429295101553173,1093.0976728742774,1091.0040008606375,0.7736434758910726,0.4150136531260761,0.0789863468739239,0.44609022850757624,1709.0900583981477,6851.011038873311
3.747906810035843,1095.3395908086402,1093.2340214181602,0.7784150030918454,0.4155448987580789,0.07845510124192111,0.4472853283297198,1706.0623198952344,6855.38473743956
3.752884109916368,1097.5871408045462,1095.470592850338,0.7831755953326882,0.4160723903549435,0.07792760964505652,0.4484802259026565,1703.0415200930377,6859.769747570021
3.757861409796894,1099.839488467612,1097.7128632025779,0.7879234950542429,0.41659597872291065,0.0774040212770893,0.4496744345326234,1700.028774238295,6864.166220790544
3.7628387096774194,1102.0958480994761,1099.9600335947532,0.7926570668763399,0.4171155294642914,0.07688447053570854,0.45086749693439504,1697.0251200498105,6868.574178710732
3.7678160095579454,1104.355424635228,1102.2113024984453,0.7973746634422395,0.41763090786973583,0.07636909213026417,0.45205895180126604,1694.0316028460372,6872.993637884651
3.772793309438471,1106.6174126172102,1104.4658623007335,0.8020746271403456,0.41814197903207667,0.07585802096792334,0.45324833431412687,1691.0492744525732,6877.42460974164
3.777770609318997,1108.8809957238218,1106.722897177173,0.8067552918017439,0.41864860796179293,0.0753513920382071,0.45443517664017113,1688.079192125002,6881.867100512518
3.782747909199523,1111.1453466867551,1108.9815818727382,0.8114149843841381,0.4191506597043406,0.0748493402956594,0.4556190084248164,1685.1224174803622,6886.321111154134
3.787725209080048,1113.4096274816109,1111.2410811141706,0.8160520266481509,0.4196479994594692,0.07435200054053086,0.45679935727887494,1682.1800154334633,6890.786637274388
3.7927025089605735,1115.6729897122827,1113.5005494629731,0.8206647368287546,0.4201404927025459,0.07385950729745415,0.4579757492619561,1679.2530531362909,6895.2636690592
3.7976798088410995,1117.9345751338396,1115.75913147734,0.8252514313024496,0.420628005307845,0.07337199469215501,0.459147709362364,1676.3425989201112,6899.75219120251
3.8026571087216254,1120.1935162753841,1118.0159620919342,0.8298104262493609,0.4211104036737121,0.07288959632628796,0.4603147619732831,1673.4497212407985,6904.252182840098
3.807634408602151,1122.4489371358377,1120.2701671523328,0.8343400393084376,0.4215875548494784,0.07241244515052161,0.46147643136471644,1670.57548762854,6908.763617487778
3.812611708482677,1124.6999539334774,1122.5208640601224,0.8388385912233028,0.422059326663977,0.071940673336023,0.46263224215044085,1667.7209636434764,6913.286462984438
3.817589008363202,1126.945675895446,1124.767162497797,0.8433044074758714,0.4225255878554918,0.07147441214450813,0.4637817197491033,1664.8872118390964,6917.820681440208
3.822566308243728,1129.1852060771528,1127.0081652116253,0.8477358199046298,0.42298620820296107,0.07101379179703893,0.4649243908385131,1662.0752907353735,6922.366229190063
3.8275436081242535,1131.4176422039918,1129.2429688368309,0.8521311683042789,0.4234410586582422,0.0705589413417578,0.4660597838021305,1659.2862538037218,6926.923056753007
3.8325209080047795,1133.642077529542,1131.4706647536784,0.8564888020034301,0.42389001147924465,0.0701099885207553,0.4671874291667458,1656.5211484658805,6931.491108797045
3.837498207885305,1135.8576017055739,1133.6903399659343,0.8608070814169737,0.4243329403637257,0.06966705963627427,0.46830686003033406,1653.7810151088695,6936.070324110025
3.842475507765831,1138.0633016599943,1135.9010779951616,0.8650843795698158,0.42476972058354706,0.06923027941645293,0.4694176124790871,1651.066886118113,6940.660635576465
3.847452807646356,1140.258262479393,1138.1019597856512,0.8693190835886874,0.4252002291191861,0.06879977088081393,0.47051922599264234,1648.379784930824,6945.261970160445
3.8524301075268816,1142.4415682932267,1140.2920646157218,0.8735095961588405,0.4256243447942976,0.06837565520570238,0.4716112438365549,1645.720725111666,6949.8742488945845
3.8574074074074076,1144.612303156927,1142.4704710117373,0.8776543369424895,0.4260419484101229,0.06795805158987715,0.4726932134410832,1643.0907094526929,6954.49738687516
3.8623847072879336,1146.7695519313634,1144.6362576616275,0.8817517439559803,0.4264529228795464,0.06754707712045364,0.47376468676539374,1640.4907290994752,6959.131293263373
3.867362007168459,1148.9124011562342,1146.7885043249883,0.885800274902749,0.4268571533606074,0.06714284663939264,0.4748252206463158,1637.9217627052815,6963.775871292749
3.872339307048985,1151.0399399149999,1148.9262927370362,0.8897984084592289,0.42725452738927694,0.06674547261072307,0.47587437713080794,1635.3847756151138,6968.431018282666
3.87731660692951,1153.1512606890287,1151.0487075038213,0.893744645510964,0.42764493501132084,0.06635506498867913,0.47691172379132235,1632.8807190813427,6973.096625657947
3.882293906810036,1155.2454601986615,1153.1548369862112,0.8976375103362861,0.42802826891307894,0.06597173108692102,0.4779368340232815,1630.4105295126121,6977.772578974494
3.8872712066905617,1157.3216402288895,1155.2437741701995,0.9014755517349811,0.42840442455100075,0.06559557544899927,0.47894928732389613,1627.9751277576515,6982.458757950855
3.8922485065710877,1159.3789084373675,1157.3146175211605,0.9052573440994759,0.4287733002797927,0.06522669972020725,0.4799486695515742,1625.575418425564,6987.1550365056655
3.897225806451613,1161.416379142452,1159.3664718196653,0.9089814884261211,0.42913479747904704,0.06486520252095297,0.4809345731651766,1623.212289244122,6991.861282800836
3.902203106332139,1163.433174088958,1161.398448976525,0.9126466132642227,0.42948882067823785,0.06451117932176216,0.4819065974423809,1620.8866104575677,6996.577359290387
3.9071804062126643,1165.4284231892807,1163.4096688247,0.9162513756005002,0.4298352776799936,0.06416472232000643,0.48286434867640826,1618.5992342653853,7001.3031227747515
3.9121577060931902,1167.4012652375145,1165.399259885727,0.9197944616766959,0.4301740796815747,0.06382592031842536,0.4838074403503571,1616.350994303493,7006.038424460438
3.9171350059737158,1169.3508485941331,1167.366360108297,0.9232745877380363,0.4305051413945112,0.06349485860548879,0.4847354932883604,1614.1427051693129,7010.783110024838
3.9221123058542418,1171.276331838753,1169.3101175765937,0.9266905007102592,0.43082838116238703,0.06317161883761294,0.4856481357827509,1611.9751619921672,7015.537019685998
3.9270896057347673,1173.1768843884204,1171.2296911859628,0.9300409788028416,0.4311437210767852,0.06285627892321477,0.48654500369636433,1609.8491400505054,7020.299988277155
3.9320669056152933,1175.0516870787596,1173.1242512834397,0.9333248320360094,0.431451087091451,0.06254891290854894,0.4874257405390488,1607.7653944374931,7025.071845325785
3.9370442054958183,1176.8999327052247,1174.9929802705951,0.9365409026889661,0.4317504091347686,0.062249590865231436,0.48828999751735896,1605.724659776593,7029.852415136933
3.9420215053763443,1178.7208265215372,1176.8350731660764,0.9396880656666403,0.4320416212206959,0.06195837877930415,0.48913743355630995,1603.7276499888453,7034.641516880535
3.94699880525687,1180.5135866922294,1178.649738125119,0.9427652287820053,0.4323246615583583,0.06167533844164174,0.48996771529192773,1601.775058113727,7039.438964682454
3.951976105137396,1182.2774446960018,1180.436196913165,0.9457713329507732,0.4325994726605637,0.06140052733943631,0.4907805170331747,1599.8675561856082,7044.244567718914
3.9569534050179214,1184.011645676338,1182.1936853305735,0.9487053522948885,0.43286600145157456,0.06113399854842546,0.49157552069162175,1598.0057951680803,7049.05813031398
3.9619307048984473,1185.7154487355251,1183.921453585189,0.9515662941508223,0.4331241993745577,0.060875800625442254,0.49235241567699883,1596.1904049486966,7053.879452039741
3.9669080047789724,1187.3881271678276,1185.6187666093037,0.954353198978104,0.43337402249923085,0.06062597750076911,0.49311089875645603,1594.4219943970081,7058.708327818785
3.9718853046594984,1189.0289686271215,1187.284904317231,0.9570651401628765,0.4336154316303398,0.060384568369660274,0.49385067387501175,1592.7011514892192,7063.544548028561
3.976862604540024,1190.6372752237198,1188.9191617993401,0.9597012237104042,0.43384839241773754,0.06015160758226241,0.4945714519342221,1591.0284435033036,7068.387898607149
3.98183990442055,1192.212363544451,1190.5208494479575,0.9622605878194831,0.43407287546900153,0.05992712453099847,0.4952729505255856,1589.40441728906,7073.238161159987
3.986817204301076,1193.7535645892028,1192.0892930099662,0.9647424023304325,0.4342888564657136,0.059711143534286436,0.49595489361454537,1587.8295996183836,7078.095113066967
3.991794504181602,1195.2602236161492,1193.623833560286,0.9671458680368529,0.4344963162847725,0.05950368371522752,0.49661701117016926,1586.3044976219867,7082.95852758938
3.9967718040621274,1196.7316998865952,1195.1238273895713,0.9694702158494518,0.43469524112638813,0.05930475887361191,0.4972590387346272,1584.8295993199863,7087.828173976012
4.001749103942653,1198.1673662988749,1196.5886457984764,0.9717147057979569,0.43488562265076297,0.05911437734923709,0.4978807169254001,1583.4053742552335,7092.703817567763
4.006726403823179,1199.566608898801,1198.017674789586,0.9738786258542947,0.43506745812590353,0.05893254187409644,0.4984817908616927,1582.0322742400563,7097.585219899937
4.011703703703705,1200.9288262518342,1199.4103146466211,0.9759612905567091,0.4352407505895509,0.058759249410449105,0.49906200950470775,1580.7107342293157,7102.472138801442
4.01668100358423,1202.2534286591786,1200.7659793886553,0.9779620394101206,0.4354055090289086,0.05859449097109134,0.4996211248991649,1579.4411733354466,7107.3643284898435
4.021658303464755,1203.5398371963395,1202.0840960847838,0.9798802350325623,0.4355617485827312,0.058438251417268765,0.5001588913005907,1578.2239960046236,7112.261539661257
4.026635603345281,1204.7874825480146,1203.3641040118648,0.9817152610106522,0.435709490771467,0.05829050922853302,0.5006750641692819,1577.059593377555,7117.163519573831
4.031612903225807,1205.9958036073003,1204.6054536344018,0.9834665194183728,0.4358487637626356,0.05815123623736443,0.5011693990072198,1575.9483448639246,7122.0700121233685
4.039078853046595,1207.733340323983,1206.3938158273434,0.9859350724803526,0.43604187233073755,0.05795812766926243,0.5018694165133394,1574.381942150967,7129.43764381605
4.046544802867384,1209.3792955659458,1208.0921978052932,0.9882119235499648,0.4362161558476421,0.05778384415235787,0.5025189010120833,1572.9371825679666,7136.81395542447
4.05152210274791,1210.4248066252057,1209.1735945941514,0.9896223911506924,0.436321978797007,0.05767802120299299,0.502923387284123,1572.0421804266934,7141.73587229382
4.056499402628435,1211.428239551263,1210.213701366466,0.9909462599520544,0.43641958625568217,0.05758041374431781,0.503304757475779,1571.2021289349948,7146.660972710849
4.058988052568698,1211.9140018664414,1210.7181092908745,0.991575543035577,0.4364653328859371,0.05753466711406295,0.5034866863768371,1570.8028218492248,7149.124630820182
4.061476702508961,1212.3890333907846,1211.2120003162988,0.9921829626753552,0.4365090553960132,0.05749094460398683,0.5036627291724518,1570.4173880555152,7151.588981299044
4.063965352449224,1212.8532619061687,1211.6953090744319,0.9927684454833954,0.4365507651198784,0.05744923488012165,0.5038328479767731,1570.0458741216935,7154.05398921949
4.066454002389487,1213.3066140034687,1212.167969704176,0.9933319165499988,0.4365904741410912,0.057409525858908836,0.5039970036038046,1569.6883275811736,7156.519619446603
4.06894265232975,1213.7490148650186,1212.6299157090402,0.9938732991185397,0.43662819534111025,0.05737180465888979,0.5041551554014294,1569.3447971393243,7158.985836635031
4.071431302270013,1214.1803880236712,1213.0810798017014,0.9943925142276399,0.43666394245456175,0.057336057545438204,0.5043072610666802,1569.015332900524,7161.4526052247975
4.073919952210275,1214.6006550955306,1213.521393734619,0.9948894803170606,0.4366977301327843,0.057302269867215684,0.504453276439606,1568.69998661824,7163.91988943633
4.076408602150538,1215.0097354830716,1213.950788115586,0.995364112793371,0.4367295740172841,0.0572704259827159,0.5045931552726748,1568.3988119706291,7166.387653264585
4.078897252090801,1215.4075460449862,1214.369192207155,0.9958163235513056,0.4367594908251461,0.057240509174853946,0.5047268489721887,1568.1118648642587,7168.855860472191
4.081385902031063,1215.79400072877,1214.7765337090566,0.9962460204468304,0.4367874984489802,0.05721250155101982,0.504854306307693,1567.839203768467,7171.324474581492
4.083874551971326,1216.1690101618367,1215.172738523085,0.9966531067184812,0.43681361607469676,0.05718638392530322,0.5049754730848393,1567.5808900825498,7173.79345886537
4.086363201911589,1216.5324811969392,1215.557730500603,0.997037480354896,0.43683786432136096,0.057162135678638995,0.505090291776704,1567.336988537089,7176.262776336705
4.088851851851852,1216.884316408151,1215.9314311739988,0.9973990334092491,0.4368602654086839,0.05713973459131607,0.5051987011082577,1567.107567628971,7178.732389736334
4.091340501792115,1217.2244135350002,1216.2937594754574,0.9977376512665836,0.4368808433595165,0.05711915664048344,0.5053006355887925,1566.8927000862984,7181.202261519327
4.093829151732378,1217.5526648753437,1216.6446314498505,0.9980532118797752,0.43689962424726647,0.05710037575273354,0.505396024988074,1566.6924633532021,7183.672353839447
4.096317801672641,1217.868956633627,1216.9839599743614,0.9983455850075105,0.43691663650182766,0.05708336349817238,0.5054847937547128,1566.506940073377,7186.1426285316165
4.0979769016328165,1218.0731143533458,1217.203721396995,0.9985275501673181,0.43692701069669504,0.05707298930330498,0.5055402548182918,1566.391475380972,7187.789560644659
4.099636001592991,1218.2718657372807,1217.4182845190871,0.9986991046046797,0.436936622628074,0.05706337737192604,0.5055927115308954,1566.2826167381334,7189.436545210224
4.101295101553166,1218.465171701632,1217.627620903465,0.9988602028969659,0.43694548301837594,0.057054516981624094,0.5056421367361391,1566.1803929674652,7191.083570657666
4.102954201513342,1218.6529915489648,1217.8317013944295,0.9990107977594549,0.4369536033983077,0.057046396601692285,0.5056885017956348,1566.0848340731502,7192.730625338902
4.104613301473517,1218.8352829334985,1218.0304961511858,0.9991508401643887,0.43696099622111195,0.05703900377888807,0.5057317765178269,1565.9959711654026,7194.377697525072
4.1054428514536045,1218.9243417705754,1218.1279018835398,0.9992168884577654,0.4369644239762039,0.057035576023796164,0.5057522451309683,1565.954060692614,7195.201236494318
4.106272401433692,1219.0120018760617,1218.2239747215042,0.9992802796027843,0.4369676750022378,0.05703232499776216,0.5057719291130421,1565.9138362943359,7196.024775403168
4.10710195141378,1219.098257513357,1218.3187107852361,0.9993410071339953,0.4369707511829865,0.05702924881701351,0.5057908242410667,1565.8753020731742,7196.848312761315
4.1079315013938675,1219.1831028630008,1218.4121061783653,0.9993990645724751,0.43697365449255315,0.05702634550744687,0.5058089261968546,1565.838462140283,7197.671847072809
4.108761051373955,1219.266532034447,1218.50415699796,0.9994544454635308,0.4369763870034148,0.057023612996585205,0.5058262305726118,1565.8033205914414,7198.495376835973
4.109590601354043,1219.348539082229,1218.59485934717,0.9995071434254266,0.43697895089554084,0.057021049104459196,0.5058427328794475,1565.7698814761343,7199.318900543342
4.1104201513341305,1219.429118027806,1218.6842093511987,0.9995571522122414,0.4369813484667793,0.05701865153322074,0.5058584285597305,1565.7381487576665,7200.142416681623
4.111249701314218,1219.5082628887956,1218.772203177463,0.9996044657949499,0.43698358214474825,0.05701641785525173,0.5058733130045325,1565.7081262617132,7200.965923731678
4.11249402628435,1219.6242782841443,1218.9016428741681,0.9996703702976664,0.43698663102918966,0.05701336897081027,0.5058941084646551,1565.666307030261,7202.201163928905
4.113738351254481,1219.7370339933327,1219.028010480488,0.9997301807092486,0.4369893263449842,0.05701067365501576,0.5059130526424235,1565.6283547608084,7203.436375074223
4.114982676224612,1219.846511408156,1219.1512946016164,0.9997838837018915,0.43699167841757647,0.05700832158242352,0.5059301303903735,1565.5942779104198,7204.671551968871
4.116227001194743,1219.9526938233203,1219.271485171057,0.999831471967447,0.4369936987174287,0.05700630128257135,0.5059453275939444,1565.5640811164276,7205.906689388547
4.117056551174831,1220.0216447154266,1219.3498894967074,0.9998598009050697,0.43699486755060174,0.05700513244939823,0.5059544082114455,1565.5461051914085,7206.730089814663
4.117886101154919,1220.0891223192941,1219.4269135972008,0.9998854167624047,0.4369958988291845,0.05700410117081547,0.5059626447871585,1565.529850832107,7207.553468806906
4.118715651135006,1220.1551253360092,1219.5025565802935,0.9999083273351539,0.4369967971649017,0.0570032028350983,0.5059700355298543,1565.5153130918159,7208.376824805336
4.119545201115094,1220.219654510558,1219.576818594539,0.999928545673552,0.43699756763153147,0.057002432368468504,0.505976580087349,1565.5024836896023,7209.200156250236
4.120374751095182,1220.2827134575164,1219.6497011730444,0.9999460920759615,0.4369982158525707,0.05700178414742926,0.5059822801801225,1565.4913497452849,7210.023461584701
4.121204301075269,1220.344309860455,1219.7212077073614,0.9999609969810291,0.4369987481143884,0.0570012518856116,0.5059871405345522,1565.4818919442378,7210.84673925829
4.121757334395327,1220.3845679729714,1219.7681170526027,0.9999694874715677,0.43699904199990575,0.05700095800009426,0.5059899185208127,1565.4765043641128,7211.395574912963
4.122310367715386,1220.4241878872147,1219.814419943648,0.9999768416083877,0.43699928982512365,0.05700071017487638,0.5059923314329507,1565.4718378491232,7211.944397138051
4.122863401035445,1220.463177760881,1219.8601197942571,0.9999830828370655,0.4369994941659697,0.057000505834030296,0.5059943851776825,1565.4678775220461,7212.493205487062
4.123416434355502,1220.501548636862,1219.9052210954226,0.9999882416329365,0.4369996578743564,0.05700034212564356,0.5059960879291157,1565.4646040449747,7213.041999520383
4.123969467675561,1220.5393154374021,1219.9497297175863,0.9999923579106441,0.4369997841333914,0.05700021586660859,0.505997450945319,1565.4619920903574,7213.59077880765
4.12452250099562,1220.5764983987556,1219.9936533235898,0.9999954845095015,0.4369998765295168,0.05700012347048321,0.50599848975719,1565.460008129385,7214.139542930978
4.125352050975708,1220.6312415473626,1220.0584646250045,0.9999984809339685,0.43699996074107267,0.05700003925892736,0.5059994896563474,1565.4581067696424,7214.962659812614
4.126181600955795,1220.6848799973973,1220.122031633457,0.9999997794991385,0.4369999947593369,0.05700000524066315,0.5059999254608432,1565.4572827743893,7215.7857404336
4.126596375945839,1220.7113562493,1220.153370801364,0.9999999697071277,0.43699999941001094,0.05700000058998908,0.5059999896276951,1565.4571620792685,7216.197266809415
4.126803763440861,1220.7245271381278,1220.1689346710082,0.9999999959384024,0.4370000000260319,0.056999999973968075,0.5059999985021874,1565.4571454344004,7216.403026465359
4.127011150935883,1220.737662798776,1220.1844306894743,1.0000000000063265,0.4370000001188621,0.056999999881137894,0.5059999998811379,1565.4571428531287,7216.608783752484
4.1278407009159706,1220.7899407349566,1220.2457694219722,1.0000000000063265,0.4370000001163938,0.05699999988360623,0.5059999998836062,1565.4571428531287,7217.431789064734
4.129499800876146,1220.893342364794,1220.3655682685874,1.0000000000063265,0.4370000001114489,0.05699999988855112,0.5059999998885512,1565.4571428531287,7219.077683954321
4.1303293508562335,1220.9445155342307,1220.4241514227226,1.0000000000063265,0.4370000001089724,0.056999999891027636,0.5059999998910276,1565.4571428531287,7219.900572777882
4.131158900836321,1220.9953672691095,1220.4819324879302,1.0000000000063265,0.43700000010649315,0.056999999893506854,0.5059999998935069,1565.4571428531287,7220.723422060536
4.136136200716846,1221.2948081075986,1220.8144621408526,1.0000000000063265,0.4370000000915617,0.056999999908438306,0.5059999999084384,1565.4571428531287,7225.659671162437
4.141113500597371,1221.586932953283,1221.1286994462841,1.0000000000063265,0.4370000000765352,0.0569999999234648,0.5059999999234648,1565.4571428531287,7230.594433429923
4.146090800477897,1221.8741817331227,1221.430711770769,1.0000000000063265,0.43700000006141476,0.056999999938585254,0.5059999999385852,1565.4571428531287,7235.527673843821
4.151068100358423,1222.1581879364721,1221.7245610198347,1.0000000000063265,0.43700000004620093,0.05699999995379909,0.5059999999537991,1565.4571428531287,7240.459370257024
4.156045400238949,1222.4400452104892,1222.012966657593,1.0000000000063265,0.4370000000308939,0.05699999996910612,0.5059999999691062,1565.4571428531287,7245.389509131733
4.161022700119474,1222.7204858012312,1222.297749463031,1.0000000000063265,0.43700000001549366,0.056999999984506354,0.5059999999845064,1565.4571428531287,7250.318082687352
4.166,1223.0,1222.5801285638756,1.0000000000063265,0.437,0.057,0.5059999999999999,1565.4571428531287,7255.245086992159
