z,T,t,fs,x,y,w,rhob,p
0.0,556.2446184048179,298.0,0.0,0.22647899825175083,0.26752100174824917,0.35471955296367774,2200.0,2040.0
0.0025716049382716053,579.6095325357275,351.7588332111129,6.41396975860104e-07,0.22647923031010594,0.267520769689894,0.35471955296367774,2199.9995930061305,2045.3615682570091
0.0051432098765432106,600.1073420228071,398.48989470617863,2.838601017955856e-06,0.22648002526171165,0.26751997473828837,0.35471955296367774,2199.9981987859996,2051.0496252214266
0.007714814814814816,618.1550824233653,439.3179488034406,7.907337106628269e-06,0.22648185913777202,0.26751814086222797,0.35471955296367774,2199.99498245572,2057.025675627437
0.010286419753086421,634.09459660815,475.13911875173085,1.713193771168537e-05,0.22648519661163538,0.26751480338836464,0.35471955296367774,2199.989129051296,2063.255329784134
0.015429629629629632,660.7365084129275,534.5322495724341,5.190498866002408e-05,0.22649777755184708,0.2675022224481529,0.35471955296367774,2199.9670640601958,2076.356057192521
0.020572839506172842,681.8013720011576,581.0784015727891,0.00011188403601572595,0.226519478058077,0.267480521941923,0.35471955296367774,2199.9290047841178,2090.144084635872
0.02571604938271605,698.5663738903528,617.8634527864976,0.00019795845078554128,0.22655061990604386,0.2674493800939562,0.35471955296367774,2199.874386879043,2104.454411936222
0.030859259259259263,711.9778918384227,647.11991569074,0.0003087990815708561,0.22659072220684598,0.26740927779315404,0.35471955296367774,2199.804053748497,2119.1559622583877
0.041145679012345684,731.4330349264035,689.2641834584952,0.0005951760514056203,0.22669433380943022,0.2673056661905698,0.35471955296367774,2199.6223352878383,2149.337769450052
0.05143209876543211,744.1397272660212,716.5534718986153,0.0009507434811710956,0.22682297862065937,0.26717702137934063,0.35471955296367774,2199.3967125150475,2180.0878838664166
0.06171851851851853,752.5224944804895,734.3982326446081,0.0013579685179375797,0.22697031322894212,0.2670296867710579,0.35471955296367774,2199.138310776718,2211.028085818702
0.07200493827160494,758.1048845309114,746.1559418997261,0.001803706371322899,0.22713158183007426,0.26686841816992574,0.35471955296367774,2198.8554710056937,2241.9220708841226
0.08229135802469137,761.8616039748276,753.9572990989989,0.0022786189178701697,0.2273034058774602,0.26669659412253977,0.3547195529636778,2198.554118641515,2272.6241103742423
0.09257777777777779,764.4233559928734,759.173814094573,0.0027762303861142905,0.22748344242760188,0.2665165575723981,0.3547195529636778,2198.2383628387083,2303.046336765119
0.10286419753086422,766.2011892392796,762.6963041070262,0.003292103962585804,0.22767008623495805,0.26632991376504195,0.3547195529636778,2197.9110189455696,2333.137808619353
0.11315061728395064,767.4641998374241,765.1066604027652,0.0038232195404301708,0.22786224462049326,0.2661377553795068,0.3547195529636778,2197.574003349331,2362.871077102461
0.12343703703703705,768.3890347487248,766.7863155937426,0.0043675287219292775,0.2280591764709454,0.2659408235290546,0.35471955296367785,2197.228615846134,2392.2335538589596
0.13372345679012346,769.0918366135805,767.9858241678307,0.004923644749668821,0.22826038005547292,0.2657396199445271,0.35471955296367785,2196.875736392989,2421.22196263281
0.14400987654320987,769.6490308397866,768.8699615027427,0.005490629430234979,0.22846551593433942,0.2655344840656606,0.3547195529636779,2196.515960313826,2449.83877591685
0.1542962962962963,770.1109246561695,769.5471512188217,0.006067847894567157,0.22867435441099898,0.26532564558900107,0.3547195529636779,2196.149690460273,2478.0899310379264
0.1645827160493827,770.5106334297303,770.0887481593732,0.006654870104106063,0.22888673989687783,0.26511326010312214,0.35471955296367796,2195.777199710226,2505.9833713288504
0.17486913580246913,770.86995153802,770.5417068456624,0.007251404286721918,0.22910256682839672,0.2648974331716033,0.35471955296367796,2195.3986732056055,2533.5281193068286
0.18515555555555557,771.2032179373196,770.9369168659688,0.007857252059949155,0.22932176343049215,0.26467823656950784,0.354719552963678,2195.0142368285883,2560.7336926054345
0.19544197530864202,771.5198626910584,771.2946915394634,0.008472278228305343,0.22954428078924277,0.2644557192107572,0.354719552963678,2194.6239763665017,2587.6097403900285
0.20572839506172844,771.8260847651399,771.6283831636647,0.009096390482025799,0.22977008550684191,0.2642299144931581,0.3547195529636781,2194.227950393848,2614.1658212576767
0.21601481481481485,772.1259573093513,771.9467642516557,0.00972952576288607,0.22999915476873267,0.2640008452312673,0.3547195529636781,2193.826198923773,2640.41127159894
0.22630123456790127,772.4221555649923,772.2555956177707,0.010371641111903314,0.23023147303229277,0.26376852696770725,0.35471955296367813,2193.4187492155925,2666.3551314941374
0.2365876543209877,772.7164360466463,772.5586586147109,0.01102270752591388,0.2304670298041356,0.2635329701958644,0.35471955296367813,2193.0056196730566,2692.006106921986
0.2468740740740741,773.0099518338219,772.8584343247553,0.011682705831923957,0.23070581814744426,0.26329418185255576,0.3547195529636782,2192.5868224622513,2717.3725546288497
0.25716049382716055,773.3034599147682,773.1565502240653,0.012351623913386546,0.2309478336784344,0.2630521663215656,0.35471955296367824,2192.1623652716457,2742.462480900588
0.26744691358024697,773.5974574631466,773.4540737647383,0.013029454841655184,0.23119307389031182,0.2628069261096882,0.35471955296367824,2191.732252497762,2767.2835486400854
0.2777333333333334,773.8922713525735,773.7517052271868,0.01371619561321022,0.2314415376963986,0.26255846230360136,0.3547195529636783,2191.296486046463,2791.843089193048
0.2880197530864198,774.1881169190826,774.0499043276952,0.014411846292204981,0.23169322511990567,0.2623067748800943,0.3547195529636783,2190.8550658770405,2816.1481166784715
0.2983061728395062,774.4851365120694,774.3489732852479,0.01511640942424838,0.2319481370818379,0.2620518629181621,0.35471955296367835,2190.4079903741963,2840.2053434246154
0.30859259259259264,774.7834247694424,774.649111287426,0.015829889631805014,0.23220627525460974,0.26179372474539025,0.3547195529636784,2189.9552566047782,2864.021195652465
0.31887901234567906,775.0830451780483,774.9504501804673,0.016552293331352406,0.23246764195971203,0.26153235804028796,0.35471955296367846,2189.496860497257,2887.6018288939636
0.3291654320987655,775.3840409170051,775.2530778410635,0.01728362853233172,0.2327322400949722,0.26126775990502776,0.35471955296367846,2189.0327969692985,2910.953142851385
0.3394518518518519,775.6864419528447,775.5570534715915,0.01802390469121956,0.2330000730817572,0.2609999269182428,0.3547195529636785,2188.563060020363,2934.0807955420532
0.34973827160493826,775.9902696788741,775.8624176032239,0.018773132602919858,0.23327114482567887,0.26072885517432115,0.3547195529636786,2188.0876428006213,2956.9902166583283
0.36002469135802473,776.2955399465677,776.1691986336219,0.01953132431759168,0.23354545968650223,0.26045454031349774,0.35471955296367863,2187.6065376637316,2979.6866201251455
0.37031111111111115,776.6022650448015,776.4774170968393,0.020298493074972498,0.2338230224543835,0.26017697754561653,0.3547195529636787,2187.1197362085127,3002.1750158685004
0.38059753086419756,776.9104549910754,776.7870884501335,0.021074653250883965,0.23410383833051576,0.25989616166948426,0.3547195529636787,2186.627229312889,3024.4602208259907
0.3908839506172839,777.2201183731444,777.0982248914906,0.021859820312356722,0.23438791291089311,0.2596120870891069,0.35471955296367874,2186.1290071623675,3046.546869239783
0.4011703703703704,777.5312628970626,777.41083654409,0.0226540107789759,0.2346752521723254,0.2593247478276746,0.3547195529636788,2185.6250592745637,3068.439422276451
0.41145679012345676,777.8438957436496,777.7249322275777,0.02345724218882476,0.23496586246011655,0.2590341375398834,0.35471955296367885,2185.115374520811,3090.142177019026
0.4217432098765432,778.1580238000389,778.0405199598408,0.024269533067921314,0.23525975047700673,0.25874024952299324,0.3547195529636789,2184.599941145558,3111.659274875667
0.4320296296296296,778.4736538098388,778.3576072831278,0.025090902902387035,0.2355569232731029,0.2584430767268971,0.35471955296367896,2184.0787467840255,3132.994709447348
0.44231604938271607,778.7907924703135,778.6762014757662,0.02592137211281791,0.2358573882366063,0.2581426117633937,0.354719552963679,2183.5517784784693,3154.1523338944494
0.45260246913580243,779.109446495113,778.9963096894256,0.02676096203048211,0.2361611530852006,0.25783884691479936,0.3547195529636791,2183.0190226932864,3175.1358678394
0.4628888888888889,779.4296226546213,779.3179390379688,0.027609694875072775,0.23646822585800303,0.25753177414199696,0.35471955296367913,2182.480465329129,3195.9489038397587
0.4731753086419754,779.7513278017885,779.6410966548489,0.028467593733814547,0.2367786149080049,0.2572213850919951,0.3547195529636792,2181.9360917361632,3216.594913463425
0.48346172839506174,780.0745688885626,779.9657897300967,0.02933468254177072,0.23709232889494677,0.2569076711050532,0.35471955296367924,2181.385886726566,3237.0772529951532
0.4937481481481482,780.3993529762465,780.2920255340778,0.030210986063230826,0.23740937677858448,0.2565906232214155,0.3547195529636793,2180.8298345863345,3257.3991688011397
0.5040345679012347,780.7256872419446,780.6198114326875,0.03109652987408156,0.2377297678123109,0.2562702321876891,0.35471955296367935,2180.267919086472,3277.563802376298
0.5143209876543211,781.0535789824974,780.9491548970163,0.03199134034508065,0.23805351153710436,0.25594648846289564,0.35471955296367946,2179.700123493603,3297.5741950967863
0.5246074074074075,781.3830356168205,781.2800635094536,0.03289544462596498,0.238380617775779,0.255619382224221,0.3547195529636795,2179.1264305800555,3317.4332926985353
0.5348938271604939,781.7140646872301,781.6125449675037,0.0338088706303333,0.23871109662751533,0.25528890337248467,0.3547195529636796,2178.546822633455,3337.1439495008253
0.5451802469135804,782.0466738601431,781.9466070861446,0.03473164702125069,0.23904495846265178,0.2549550415373482,0.35471955296367963,2177.961281465858,3356.708932392441
0.5554666666666668,782.3808709263936,782.2822577992599,0.03566380319752722,0.2393822139177204,0.25461778608227953,0.35471955296367974,2177.3697884224607,3376.1309245965226
0.5657530864197532,782.7166638013297,782.6195051604943,0.036605369280627645,0.2397228738907109,0.2542771261092891,0.3547195529636798,2176.7723243899013,3395.412529228968
0.5760395061728396,783.0540605247891,782.9583573437529,0.037556376102172544,0.2400669495365481,0.2539330504634519,0.35471955296367985,2176.1688698041958,3414.556272664073
0.586325925925926,783.3930692610261,783.2988226434906,0.03851685519199431,0.2404144522627712,0.25358554773722886,0.35471955296367996,2175.559404658314,3433.5646077200413
0.5966123456790124,783.7336982986297,783.6409094748842,0.03948683876671425,0.24076539372540035,0.25323460627459965,0.35471955296368,2174.94390850943,3452.439916676033
0.6068987654320989,784.0759560504663,783.9846263739487,0.04046635971880901,0.24111978582498128,0.2528802141750187,0.35471955296368013,2174.3223604858563,3471.1845141315334
0.6171851851851853,784.4198510536653,784.3299819976347,0.04145545160613708,0.24147764070279584,0.2525223592972041,0.3547195529636802,2173.6947392936945,3489.8006497180186
0.6274716049382717,784.7653919696687,784.6769851239369,0.042454148641897595,0.24183897073722907,0.25216102926277095,0.3547195529636803,2173.061023223203,3508.29051067216
0.6377580246913581,785.112587584355,785.0256446520285,0.04346248568499564,0.24220378854028327,0.25179621145971676,0.35471955296368035,2172.4211901549124,3526.6562242791297
0.6480444444444445,785.4614468082558,785.3759696024377,0.044480498230789735,0.2425721069542306,0.2514278930457694,0.35471955296368046,2171.775217565497,3544.8998601939584
0.658330864197531,785.8119786768807,785.7279691172753,0.045508222402198546,0.24294393904839534,0.25105606095160465,0.3547195529636806,2171.1230825334164,3563.0234326483132
0.6686172839506174,786.1641923511721,786.0816524605252,0.04654569494114531,0.2433192981160586,0.2506807018839414,0.35471955296368063,2170.4647617443457,3581.028902549565
0.6789037037037038,786.5180971181151,786.4370290184081,0.04759295320031971,0.2436981976714776,0.2503018023285224,0.35471955296368074,2169.800231496403,3598.9181794785104
0.6891901234567902,786.8737023915363,786.794108299832,0.04865003513523799,0.24408065144701313,0.2499193485529869,0.35471955296368085,2169.129467705186,3616.6931235916936
0.6994765432098765,787.2310177131367,787.1528999369461,0.049716979296583336,0.24446667339035816,0.24953332660964184,0.35471955296368096,2168.4524459086338,3634.3555474338605
0.709762962962963,787.5900527538123,787.513413685815,0.05079382482280956,0.24485627766186202,0.24914372233813797,0.354719552963681,2167.769141271721,3651.907217665694
0.7200493827160495,787.950817315342,787.8756594272434,0.05188061143299194,0.2452494786319437,0.24875052136805628,0.35471955296368113,2167.0795285909912,3669.34985671166
0.7303358024691359,788.3133213325344,788.2396471677833,0.052977379419910584,0.24564629087858939,0.2483537091214106,0.35471955296368124,2166.3835822989486,3686.6851443324485
0.7406222222222223,788.6775748759676,788.6053870409659,0.05408416964335193,0.24604672918492906,0.24795327081507096,0.35471955296368135,2165.6812764683086,3703.914719126231
0.7509086419753087,789.0435881554852,788.9728893088167,0.05520102352361563,0.24645080853688708,0.2475491914631129,0.35471955296368146,2164.9725848161147,3721.040179962658
0.7611950617283951,789.4113715246735,789.3421643637291,0.05632798303521481,0.24685854412090316,0.24714145587909683,0.3547195529636816,2164.2574807077403,3738.0630873533023
0.7714814814814815,789.780935486608,789.7132227307891,0.05746509070075872,0.2472699513217189,0.2467300486782811,0.35471955296368174,2163.535937160767,3754.984964762003
0.7817679012345679,790.1522907012547,790.0860750706821,0.058612389585008313,0.24768504572022723,0.24631495427977276,0.35471955296368185,2162.8079268487586,3771.8072998583802
0.7920543209876544,790.5254479950333,790.460732183343,0.05976992328909642,0.24810384309138114,0.24589615690861885,0.35471955296368196,2162.0734221049274,3788.5315457175775
0.8023407407407408,790.9004183732105,790.8372050125674,0.0609377359449057,0.24852635940215978,0.24547364059784024,0.35471955296368207,2161.332394925703,3805.159121969147
0.8126271604938272,791.2772130360132,791.2155046518658,0.062115872209600055,0.24895261080958966,0.24504738919041033,0.35471955296368224,2160.5848169742,3821.691415897818
0.8229135802469137,791.655843399642,791.5956423519318,0.06330437726030684,0.24938261365882097,0.24461738634117902,0.35471955296368235,2159.8306595835957,3838.1297834987745
0.8332,792.0363211237466,791.9776295302141,0.0645032967889505,0.24981638448125817,0.24418361551874185,0.3547195529636825,2159.0698937604056,3854.475550489942
0.8434864197530865,792.4186581474584,792.361477783232,0.06571267699724262,0.2502539399927474,0.2437460600072526,0.3547195529636826,2158.302490187664,3870.7300132837167
0.8537728395061728,792.8028667367585,792.747198902483,0.06693256459183665,0.2506952970918236,0.2433047029081764,0.3547195529636828,2157.528419227997,3886.8944399204806
0.8640592592592592,793.1889595469097,793.1348048950648,0.06816300677966405,0.25114047285802293,0.24285952714197706,0.3547195529636829,2156.747650926584,3902.970070966253
0.8743456790123457,793.5769497049353,793.5243080104907,0.06940405126347494,0.2515894845502695,0.24241051544973047,0.35471955296368307,2155.960155013985,3918.958120376803
0.8846320987654321,793.9668509188311,793.9157207756695,0.07065574623761833,0.25204234960534866,0.24195765039465136,0.35471955296368324,2155.165900908821,3934.859776330636
0.8949185185185186,794.3586776224992,794.3090560406641,0.07191814038411141,0.25249908563648465,0.24150091436351534,0.3547195529636834,2154.364857720265,3950.6762020333654
0.9052049382716051,794.7524451684867,794.7043270387173,0.07319128286906591,0.252959710432048,0.24104028956795195,0.35471955296368357,2153.556994250312,3966.4085364962016
0.9154913580246914,795.1481700848269,795.1015474652011,0.07447522333956612,0.2534242419544258,0.24057575804557424,0.35471955296368374,2152.7422789957595,3982.0578952915844
0.9257777777777778,795.5458704179617,795.5007315817346,0.07577001192112733,0.25389269833910194,0.24010730166089805,0.3547195529636839,2151.9206801498194,3997.625371289445
0.9360641975308642,795.9455661914405,795.9018943538595,0.07707569921590923,0.2543650978940112,0.23963490210598878,0.35471955296368407,2151.0921656032538,4013.112035378215
0.9463506172839508,796.347280020542,796.3050516335934,0.07839233630192295,0.25484145909925204,0.23915854090074798,0.35471955296368424,2150.256702944874,4028.5189371755896
0.9566370370370372,796.7510379371051,796.7102204022021,0.07971997473355383,0.2553218006072757,0.23867819939272433,0.3547195529636844,2149.414259461214,4043.847105735283
0.9669234567901236,797.1568704979974,797.1174190940811,0.08105866654383957,0.2558061412437106,0.2381938587562894,0.35471955296368457,2148.5648021350817,4059.0975502576766
0.9772098765432101,797.5648142764226,797.5266680303781,0.08240846424910156,0.256294500009038,0.23770549999096205,0.3547195529636848,2147.70829764262,4074.2712608145653
0.9874962962962964,797.9749138698836,797.9379900018904,0.083769420856747,0.2567868960814145,0.23721310391858555,0.35471955296368496,2146.8447123483575,4089.369209101272
0.9977827160493828,798.3872246047258,798.3514110563102,0.08514158987736527,0.2572833488210489,0.2367166511789511,0.3547195529636852,2145.9740122975313,4104.392349233585
1.0080691358024694,798.8018161779826,798.766961567373,0.08652502534267006,0.25778387777669354,0.23621612222330649,0.3547195529636854,2145.096163204704,4119.34161861252
1.0183555555555557,799.2187775561272,799.1846776964749,0.08791978183144827,0.25828850269503256,0.23571149730496746,0.35471955296368557,2144.211130437296,4134.217938887333
1.0286419753086422,799.6382235502073,799.6046034065956,0.08932591450655192,0.25879724353406575,0.23520275646593425,0.3547195529636858,2143.318878992114,4149.022217056937
1.0389283950617285,800.0603036084814,800.0267932629991,0.09074347916724462,0.2593101204820475,0.2346898795179525,0.354719552963686,2142.419373462133,4163.755346762398
1.049214814814815,800.4852135064871,800.451316369615,0.09217253232310327,0.2598271539842246,0.23417284601577537,0.35471955296368624,2141.5125779896057,4178.418209839119
1.0595012345679014,800.9132107542503,800.8782619664546,0.09361313129850184,0.2603483647806387,0.2336516352193613,0.35471955296368646,2140.5984561997593,4193.0116782165705
1.069787654320988,801.344634642608,801.307747484406,0.09506533438098756,0.2608737739598087,0.2331262260401913,0.3547195529636867,2139.676971106647,4207.5366162755645
1.0800740740740744,801.7799318371427,801.7399302617945,0.09652920103335774,0.2614034030354609,0.2325965969645391,0.35471955296368696,2138.748084978576,4221.993883795735
1.0903604938271607,802.2196881566289,802.175024714323,0.0980047921990442,0.26193727405701717,0.23206272594298283,0.3547195529636872,2137.8117591443265,4236.384339643913
1.1006469135802472,802.6646664095585,802.6133275211567,0.09949217074480889,0.2624754097697631,0.2315245902302369,0.35471955296368746,2136.867953712244,4250.708846357121
1.1109333333333336,803.1158485723172,803.0552542174028,0.10099140210483028,0.26301783384787925,0.23098216615212072,0.3547195529636877,2135.9166271615377,4264.968275744137
1.1212197530864199,803.5744777947799,803.5013910157284,0.10250255521547662,0.26356457123264354,0.23043542876735643,0.35471955296368796,2134.957735749128,4279.163515539547
1.1315061728395064,804.0420914958023,803.9525646536162,0.10402570385530047,0.2641156486172432,0.22988435138275684,0.35471955296368823,2133.991232659361,4293.295476958774
1.1417925925925927,804.520531575479,804.4099286939019,0.10556092851542452,0.2646710951234829,0.22932890487651708,0.3547195529636885,2133.0170668171695,4307.3651026898
1.152079012345679,805.0119132720537,804.8750547424077,0.10710831889243777,0.2652309432037187,0.22876905679628132,0.3547195529636888,2132.0351813062243,4321.3733744153615
1.1623654320987657,805.5185340135473,805.3500009414868,0.10866797697785555,0.2657952297586284,0.2282047702413716,0.35471955296368907,2131.045511408537,4335.32131846084
1.172651851851852,806.0427123766736,805.8373129577925,0.11024002048351254,0.2663639973765245,0.22763600262347553,0.35471955296368934,2130.047982430905,4349.210007794596
1.1829382716049384,806.5865673745985,806.339908043503,0.11182458601708578,0.26693729548226236,0.22706270451773766,0.3547195529636897,2129.042507689901,4363.040558653582
1.193224691358025,807.1517751580825,806.8608171091666,0.11342183113699016,0.2675151810807047,0.22648481891929526,0.35471955296368995,2128.0289872079597,4376.814120776917
1.2035111111111112,807.739360658298,807.4028156323333,0.11503193438222405,0.26809771876752003,0.22590228123248,0.3547195529636903,2127.0073076944336,4390.531861593112
1.2137975308641975,808.3495808195279,807.968035700227,0.11665509274066622,0.26868497981320805,0.22531502018679195,0.3547195529636906,2125.9773441520724,4404.194946305294
1.224083950617284,808.9819297404542,808.5576761665214,0.11829151670881549,0.2692770403757071,0.22472295962429292,0.35471955296369095,2124.938963011826,4417.80451697361
1.2343703703703703,809.6352568064056,809.1718939085332,0.1199414237890239,0.2698739791476832,0.2241260208523168,0.35471955296369134,2123.8920262591305,4431.361673876004
1.2446567901234566,810.3079572128053,809.8098875832025,0.12160503162460683,0.2704758748728032,0.22352412512719677,0.3547195529636917,2122.8363957899746,4444.867461610274
1.2549432098765434,810.9981833432853,810.4701205807941,0.12328255186316728,0.2710828041254766,0.22291719587452344,0.35471955296369206,2121.771937304883,4458.322861033165
1.2652296296296297,811.7040342966352,811.1506023117631,0.12497418539855695,0.27169483958938984,0.2223051604106102,0.35471955296369245,2120.6985233280984,4471.728786808022
1.2755160493827162,812.4236993847368,811.8491565595309,0.126680119117017,0.2723120488802558,0.22168795111974424,0.35471955296369284,2119.6160352722904,4485.086089448075
1.2858024691358025,813.1555494221202,812.5636339824678,0.12840052384982042,0.2729344938050765,0.22106550619492352,0.3547195529636933,2118.5243647376956,4498.395560391535
1.296088888888889,813.8981816844088,813.2920545248425,0.1301355529757357,0.27356222985651263,0.22043777014348737,0.3547195529636937,2117.423414398911,4511.657938707125
1.3063753086419754,814.6504298581903,814.032685047972,0.13188534098777668,0.2741953056943315,0.2198046943056685,0.3547195529636941,2116.3130989143565,4524.873918314671
1.3166617283950621,815.4113509354613,814.7840667165332,0.1336500012644826,0.27483376233905277,0.21916623766094726,0.3547195529636946,2115.1933463404885,4538.044154953906
1.3269481481481484,816.1801990646783,815.5450083979533,0.13542962218762822,0.27547763176733064,0.21852236823266935,0.35471955296369506,2114.064100595285,4551.169272448383
1.3372345679012347,816.9563935587679,816.314560030425,0.13722426055624112,0.27612693452913556,0.21787306547086444,0.35471955296369556,2112.925325637327,4564.249868048792
1.3475209876543213,817.7394855432633,817.0919761828302,0.13903393089568375,0.2767816758797647,0.21721832412023526,0.35471955296369606,2111.7770122496504,4577.286516796223
1.3578074074074076,818.5291254960904,817.8766763301849,0.14085858867672427,0.2774418397084776,0.21655816029152242,0.3547195529636966,2110.6191886879606,4590.279774932449
1.3680938271604939,819.325032231066,818.6682053037615,0.1426981045475816,0.27810737921561224,0.21589262078438776,0.3547195529636971,2109.4519370315074,4603.2301824180195
1.3783802469135804,820.1269625906901,819.4661950418362,0.1445522253145511,0.2787782027953196,0.2152217972046804,0.3547195529636977,2108.2754179425465,4616.138264613618
1.3886666666666667,820.9346800642189,820.2703270217174,0.14642051542491055,0.2794541528639937,0.21454584713600627,0.3547195529636983,2107.0899077979475,4629.004533146257
1.398953086419753,821.7479195607776,821.080293375564,0.14830226994693393,0.28013497437631485,0.21386502562368515,0.3547195529636989,2105.8958539071014,4641.829485923785
1.4092395061728398,822.5663445157236,821.8957534753017,0.1501963864385937,0.2808202684671602,0.21317973153283978,0.3547195529636995,2104.6939558167223,4654.61360618005
1.419525925925926,823.3894913704188,822.7162815949893,0.15210117893368222,0.2815094251515132,0.21249057484848674,0.35471955296370017,2103.4852833446243,4667.35736032741
1.4298123456790126,824.2166954617724,823.5413001921335,0.15401411376959442,0.2822015277465728,0.21179847225342718,0.35471955296370083,2102.2714442083166,4680.061194264062
1.440098765432099,825.046992223328,824.3699928568274,0.1559314474291103,0.2828952218423851,0.21110477815761494,0.35471955296370156,2101.0548138299114,4692.725527642624
1.4503851851851852,825.8789900382543,825.2011922730504,0.1578477581678235,0.2835885458439689,0.2104114541560311,0.3547195529637023,2099.8388325385945,4705.35074549403
1.4606716049382715,826.7107192517142,826.0332440197087,0.1597553987901807,0.284278732984894,0.20972126701510602,0.354719552963703,2098.6283528076824,4717.937186614282
1.470958024691358,827.5394800394528,826.8638602828859,0.16164397399242492,0.28496202222920053,0.20903797777079947,0.3547195529637038,2097.429970902921,4730.485128447921
1.4812444444444446,828.3617422342537,827.6900013232303,0.1635000675765268,0.2856335595770043,0.20836644042299568,0.3547195529637046,2096.2521999769406,4742.99476911012
1.4915308641975311,829.1731841717212,828.5078526468872,0.16530756965930335,0.28628751644923006,0.20771248355076993,0.35471955296370544,2095.1052624410436,4755.466208881459
1.5018172839506174,829.9689648434411,829.3129819841355,0.16704894980359133,0.2869175503083143,0.20708244969168574,0.3547195529637063,2094.0002821089156,4767.899435722679
1.512103703703704,830.7442601379234,830.1007272556059,0.16870751508549292,0.2875176216302063,0.20648237836979372,0.35471955296370716,2092.94785135618,4780.294320891199
1.5223901234567903,831.4949535649903,830.8667673322332,0.17027009717732552,0.2880829660948725,0.20591703390512747,0.3547195529637081,2091.956326051108,4792.650629709446
1.5326765432098768,832.218242903528,831.6077101750467,0.17172914615381743,0.2886108521284115,0.20538914787158852,0.35471955296370905,2091.0304969448534,4804.9680480693105
1.542962962962963,832.9129352895873,832.321496628244,0.1730833907816708,0.2891008197967742,0.20489918020322576,0.35471955296371005,2090.171170689425,4817.246219358859
1.5532493827160494,833.5793660934756,833.0075059367038,0.17433699805961012,0.2895543767261364,0.20444562327386362,0.35471955296371105,2089.375703145546,4829.484783013151
1.5635358024691361,834.2190531145548,833.6663892928451,0.17549786371151777,0.2899743796008378,0.20402562039916225,0.3547195529637121,2088.6390841380257,4841.6834068421285
1.5738222222222225,834.8342621528117,834.2997473228426,0.17657580631403225,0.2903643807961312,0.2036356192038688,0.35471955296371316,2087.95508335919,4853.841809154604
1.584108641975309,835.4276171540783,834.9097738128579,0.17758114619536225,0.29072811422171446,0.20327188577828556,0.35471955296371427,2087.3171521184913,4865.959770571539
1.5943950617283953,836.0018127857222,835.4989457692926,0.17852379797714998,0.29106916700206187,0.20293083299793813,0.3547195529637154,2086.718999163585,4878.037137645333
1.6046814814814816,836.5594323108389,836.0697924013768,0.1794127981834571,0.29139080856467087,0.20260919143532913,0.35471955296371654,2086.154890432674,4890.073820982665
1.614967901234568,837.1028490261193,836.6247435858896,0.18025612837172228,0.2916959266485863,0.20230407335141368,0.3547195529637177,2085.6197612854976,4902.069790218991
1.6252543209876542,837.6341850448118,837.1660433710194,0.18106071018710918,0.2919870255150564,0.2020129744849436,0.35471955296371893,2085.1092196415566,4914.025067544787
1.6355407407407407,838.1553054434486,837.6957104009975,0.1818324864041816,0.2922662552685281,0.20173374473147188,0.3547195529637202,2084.619494555701,4925.939720872011
1.645827160493827,838.6678320443223,838.2155290425212,0.18257653600990634,0.29253545349384436,0.20146454650615564,0.3547195529637215,2084.1473631930285,4937.813857266273
1.6561135802469138,839.1731666067438,838.7270587591382,0.18329719513351606,0.2927961890088436,0.2012038109911564,0.35471955296372276,2083.6900740937067,4949.647616958968
1.6664,839.6725172493552,839.2316530511997,0.1839981701867828,0.2930498027986748,0.2009501972013252,0.35471955296372415,2083.245275380621,4961.4411680613475
1.6766864197530866,840.1669246384026,839.7304823476559,0.18468263774851257,0.29329744415415215,0.20070255584584787,0.3547195529637255,2082.8109513783797,4973.194701992267
1.686972839506173,840.6572861836509,840.2245574736078,0.18535332997272227,0.29354010157255717,0.2004598984274428,0.3547195529637269,2082.385368418166,4984.908429573872
1.6972592592592595,841.1443775026238,840.7147518335734,0.1860126063091006,0.2937786287062057,0.20022137129379433,0.3547195529637283,2081.9670293280337,4996.582577723881
1.7075456790123458,841.6288709895196,841.2018214185332,0.1866625131325072,0.2940137659364866,0.19998623406351343,0.3547195529637298,2081.554635595433,5008.217386665774
1.7178320987654325,842.1113516270481,841.6864223288075,0.1873048330782289,0.2942461582234293,0.1997538417765707,0.3547195529637313,2081.1470560618745,5019.813107580593
1.7281185185185188,842.5923303185699,842.1691258341817,0.18794112579436673,0.29447636984997644,0.1995236301500236,0.35471955296373286,2080.7433010637974,5031.370000631089
1.7384049382716054,843.0722550650594,842.6504311615262,0.18857276162484793,0.2947048966085461,0.1992951033914539,0.3547195529637344,2080.34250105925,5042.888333297709
1.7486913580246917,843.5515203085888,843.1307762717803,0.1892009495067718,0.29493217589433235,0.19906782410566762,0.35471955296373603,2079.9438889258317,5054.36837897485
1.758977777777778,844.0304747376289,843.6105469047005,0.18982676014818642,0.29515859509105824,0.19884140490894175,0.35471955296373764,2079.546785253398,5065.810415784012
1.7692641975308643,844.5094278130506,844.090084156665,0.19045114535824953,0.295384498564656,0.198615501435344,0.35471955296373936,2079.1505860782468,5077.214725567827
1.7795506172839506,844.9886552359579,844.5696908301794,0.1910749542390416,0.29561019352148843,0.19838980647851154,0.3547195529637411,2078.754752608718,5088.581593035153
1.7898370370370371,845.4684035457497,845.0496367640375,0.1916989468262237,0.29583595494355897,0.19816404505644106,0.3547195529637428,2078.3588025696113,5099.911305032657
1.8001234567901234,845.9488940367398,845.5301633413363,0.1923238057956789,0.296062029823991,0.197937970176009,0.3547195529637446,2077.962302773822,5111.204149923
1.8104098765432102,846.4303265128902,846.0114875657742,0.19295014835103683,0.29628864146795203,0.19771135853204802,0.3547195529637464,2077.564861579195,5122.460417056221
1.8206962962962965,846.9128874225987,846.4938085787346,0.1935785582297253,0.29651600107248904,0.19748399892751095,0.3547195529637483,2077.1661085793153,5133.680396358002
1.8361259259259262,847.6394829676309,847.2197160750787,0.1945274028686495,0.2968592944375188,0.19714070556248123,0.3547195529637512,2076.5640259911474,5150.442962133178
1.843840740740741,848.0051880333003,847.584570699107,0.1950095427232022,0.2970337333354104,0.19696626666458958,0.3547195529637527,2076.2580875902972,5158.794189188308
1.8476981481481483,848.1893094879264,847.767943900742,0.1952553256069771,0.29712265793884546,0.19687734206115454,0.35471955296375346,2076.1021278169897,5162.962351554393
1.849626851851852,848.2815034509754,847.859796339411,0.1953784587974214,0.29716720770554106,0.1968327922944589,0.3547195529637538,2076.023994530516,5165.044578646629
1.8515555555555556,848.3725607315881,847.9511039835949,0.1954960437832568,0.29720975012377104,0.19679024987622895,0.3547195529637542,2075.949381817647,5167.125570458594
1.8525199074074075,848.4167056485945,847.9960231607018,0.19554834753316927,0.29722867369626593,0.19677132630373403,0.3547195529637544,2075.9161928467383,5168.165601006135
1.8534842592592593,848.4594044495324,848.0401365218107,0.1955939886057518,0.29724518670245015,0.19675481329754987,0.35471955296375457,2075.8872316301386,5169.205318496469
1.855412962962963,848.5411681693067,848.1261374815832,0.19566908916259612,0.2972723581927204,0.19672764180727956,0.35471955296375496,2075.839577108226,5171.283804395894
1.8573416666666667,848.6206135317434,848.2103165515166,0.19573496677231794,0.29729619280735975,0.19670380719264025,0.35471955296375535,2075.797774941531,5173.361015137545
1.8592703703703704,848.6992781542311,848.293444867289,0.1957989289942976,0.297319334431939,0.19668066556806102,0.35471955296375574,2075.757188170447,5175.436946934077
1.866985185185185,849.0109303814105,848.6189804777893,0.19605527846117193,0.2974120820404473,0.19658791795955274,0.3547195529637573,2075.5945234473093,5183.727887407353
1.8824148148148148,849.6269051768181,849.2496105174368,0.1965773839296728,0.29760098055536516,0.19639901944463484,0.35471955296376045,2075.263225151597,5200.248594707512
1.8978444444444444,850.2401152649306,849.8683994872321,0.19711180238740825,0.29779433392762683,0.19620566607237314,0.35471955296376373,2074.9241137365157,5216.688326095119
1.9132740740740743,850.8549132671416,850.4847150102361,0.19765895371679815,0.2979922940713002,0.19600770592869982,0.3547195529637671,2074.576922768675,5233.0479392425295
1.9235604938271607,851.2667262558314,850.8964405554696,0.19803108680029058,0.29812693236004545,0.1958730676399545,0.3547195529637694,2074.3407883786385,5243.910298860031
1.933846913580247,851.6805043412281,851.3096547207879,0.1984093277071104,0.29826378046811947,0.19573621953188053,0.3547195529637718,2074.1007783129367,5254.737751729143
1.9441333333333335,852.0964632511187,851.724758723663,0.19879386471440877,0.29840290651446827,0.19559709348553173,0.35471955296377417,2073.8567731016487,5265.530585550962
1.9544197530864198,852.5147539408573,852.1420112064486,0.19918488778682664,0.2985443792285741,0.19545562077142586,0.3547195529637766,2073.6086522040678,5276.289088330298
1.9647061728395065,852.9354897994062,852.5615880548304,0.19958258785470007,0.2986882676893093,0.1953117323106907,0.3547195529637791,2073.3562944667133,5287.013547360083
1.9749925925925929,853.3587624744146,852.9836171794843,0.19998715643217854,0.29883464118677044,0.19516535881322955,0.35471955296378166,2073.09957836565,5297.704248649188
1.9852790123456792,853.7846510758073,853.4081987314645,0.20039878543071124,0.298983569154798,0.19501643084520198,0.3547195529637842,2072.838382124838,5308.361476606804
1.9955654320987657,854.2132275298508,853.8354168487158,0.20081766708638452,0.29913512114468654,0.19486487885531348,0.3547195529637869,2072.572583762242,5318.985513875143
2.005851851851852,854.6445596967251,854.2653464820895,0.20124399395340123,0.29928936682282553,0.1947106331771745,0.3547195529637896,2072.302061093969,5329.576641247818
2.0161382716049387,855.0787131896449,854.6980573643964,0.20167795893611087,0.2994463759822881,0.19455362401771184,0.3547195529637923,2072.02669171394,5340.135137637635
2.026424691358025,855.5157524409095,855.1336163219697,0.20211975534447452,0.2996062185628984,0.19439378143710165,0.35471955296379515,2071.7463529587017,5350.661280072858
2.0367111111111114,855.9557413313798,855.572088625234,0.20256957696309968,0.29976896467620795,0.19423103532379207,0.354719552963798,2071.4609218636147,5361.155343709835
2.0469975308641977,856.3987435674219,856.0135387827397,0.2030276181296801,0.299934684633876,0.19406531536612404,0.3547195529638009,2071.170275113084,5371.6176018550195
2.0572839506172844,856.8448229118445,856.4580310131736,0.2034940738193281,0.30010344897818064,0.19389655102181935,0.3547195529638039,2070.874288987044,5382.048325992358
2.0675703703703707,857.2940433308352,856.905629531427,0.203969139733933,0.300275328514349,0.193724671485651,0.35471955296380697,2070.5728393042596,5392.447785813727
2.077856790123457,857.7464690926398,857.3563987274767,0.2044530123951964,0.3004503943442174,0.1935496056557826,0.35471955296381,2070.265801363288,5402.816249251121
2.0881432098765433,858.2021648388837,857.8104032837923,0.20494588924146043,0.30062871790126405,0.1933712820987359,0.35471955296381324,2069.9530498810404,5413.153982509813
2.0984296296296296,858.661195640467,858.267708257636,0.20544796872766205,0.30081037098677277,0.19318962901322728,0.35471955296381646,2069.634458929353,5423.461250102082
2.108716049382716,859.1236270451795,858.7283791436645,0.2059594504290623,0.30099542580736194,0.19300457419263806,0.35471955296381974,2069.30990186917,5433.7383148812605
2.1190024691358027,859.5895251208665,859.1924819255585,0.20648053514777864,0.3011839550135288,0.19281604498647123,0.3547195529638231,2068.979251282942,5443.985438076001
2.129288888888889,860.0589564966762,859.6600831219027,0.207011425023008,0.3013760317395275,0.19262396826047257,0.35471955296382657,2068.642378904686,5454.202879324664
2.1395753086419753,860.5319884034915,860.131249829136,0.20755232364377246,0.3015717296441611,0.19242827035583884,0.35471955296383006,2068.299155548442,5464.390896709834
2.1498617283950616,861.0086887145984,860.6060497634189,0.2081034361654242,0.3017711229529335,0.19222887704706648,0.3547195529638337,2067.9494510343457,5474.549746792936
2.1601481481481484,861.4891259867117,861.0845513022256,0.20866496942840246,0.30197428650101515,0.19202571349898484,0.35471955296383734,2067.5931341132746,5484.679684648972
2.170434567901235,861.9733695017884,861.5668235262914,0.20923713208004238,0.3021812957773142,0.1918187042226858,0.35471955296384106,2067.230072389553,5494.780963901368
2.1807209876543214,862.4614893096362,862.0529362621617,0.20982013469879024,0.30239222696941753,0.19160777303058246,0.3547195529638449,2066.8601322421305,5504.853836756967
2.1910074074074077,862.9535562713719,862.5429601254971,0.21041418992068575,0.3026071570093525,0.19139284299064757,0.35471955296384877,2066.483178744328,5514.898554041171
2.201293827160494,863.4496421036479,863.0369665651205,0.21101951256762966,0.30282616361999387,0.19117383638000618,0.35471955296385277,2066.099075582443,5524.915365233239
2.211580246913581,863.9498194237783,863.5350279079287,0.21163631977785616,0.3030493253622694,0.19095067463773058,0.3547195529638568,2065.7076849729597,5534.904518501762
2.221866666666667,864.454161795487,864.0372174044974,0.21226483113737143,0.30327672168271436,0.19072327831728564,0.354719552963861,2065.3088675791464,5544.866260740329
2.2321530864197534,864.9627437753597,864.5436092754035,0.21290526881275193,0.3035084329615179,0.1904915670384821,0.35471955296386526,2064.902482426788,5554.8008376033895
2.24243950617284,865.4756409599277,865.0542787582116,0.21355785768497956,0.3037445405609451,0.1902554594390549,0.3547195529638696,2064.4883868192655,5564.708493542307
2.2527259259259265,865.9929300331461,865.569302154955,0.2142228254833241,0.3039851268737756,0.19001487312622437,0.35471955296387403,2064.066436252596,5574.589471841649
2.2630123456790128,866.5146888144575,866.0887568801832,0.2149004029201688,0.3042302753720841,0.18976972462791591,0.3547195529638785,2063.6364843298848,5584.444014655671
2.273298765432099,867.0409963070863,866.6127215093586,0.21559082382523134,0.30448007065580107,0.18951992934419895,0.3547195529638832,2063.1983826761552,5594.272363045034
2.2835851851851854,867.5719327467588,867.1412758276659,0.21629432528012818,0.30473459850139883,0.18926540149860116,0.3547195529638879,2062.751980852961,5604.074757013742
2.2938716049382717,868.107579650532,867.6745008790368,0.217011147751888,0.3049939459101968,0.1890060540898032,0.35471955296389274,2062.2971262736664,5613.851435546306
2.304158024691358,868.6480198659043,868.2124790154456,0.2177415352262653,0.3052582011565944,0.18874179884340558,0.3547195529638977,2061.8336641188534,5623.602636645126
2.3144444444444447,869.1933376199753,868.7552939463354,0.21848573533981042,0.30552745383585433,0.18847254616414566,0.35471955296390273,2061.3614372525185,5633.328597368112
2.3247308641975315,869.7436185687139,869.3030307881643,0.21924399951103732,0.3058017949115592,0.18819820508844082,0.3547195529639079,2060.880286138839,5643.02955386651
2.335017283950618,870.2989498462531,869.8557761140218,0.22001658307030617,0.3060813167626032,0.18791868323739683,0.35471955296391317,2060.3900487597593,5652.705741422959
2.345303703703704,870.8594201141635,870.4136180032541,0.22080374538826283,0.3063661132296618,0.18763388677033827,0.3547195529639186,2059.8905605334876,5662.357394489766
2.3555901234567904,871.4251196107685,870.9766460911325,0.2216057500030805,0.30665627966122777,0.18734372033877222,0.3547195529639241,2059.3816542337595,5671.98474672739
2.3658765432098767,871.9961149160861,871.5449353033594,0.2224227573077315,0.3069518740877111,0.18704812591228898,0.35471955296392976,2058.8632280843594,5681.588030865009
2.376162962962963,872.5725199988834,872.1185859041332,0.22325514247526612,0.30725303224726463,0.18674696775273536,0.35471955296393554,2058.335044021909,5691.167478739212
2.3864493827160493,873.1544370593797,872.6977000996063,0.22410320316924923,0.30755986183499756,0.18644013816500243,0.3547195529639415,2057.7969131661184,5700.723321893315
2.396735802469136,873.7419638214284,873.2823766173346,0.22496721843587994,0.30787246381022904,0.186127536189771,0.3547195529639475,2057.2486584502153,5710.255791256981
2.4070222222222224,874.3351992902436,873.8727146862209,0.22584747241974987,0.3081909409768838,0.18580905902311617,0.35471955296395374,2056.6900995722795,5719.765117169755
2.4173086419753087,874.9342440694397,874.468814689034,0.2267442544396779,0.30851539801092986,0.18548460198907016,0.35471955296396007,2056.12105294712,5729.251529413826
2.4275950617283955,875.5392005575912,875.0707785480737,0.2276578590697748,0.3088459414897071,0.18515405851029287,0.35471955296396657,2055.5413316548393,5738.715257250599
2.4378814814814818,876.1501730771365,875.6787099605853,0.2285885862237894,0.30918267992244447,0.1848173200775555,0.3547195529639732,2054.9507453873102,5748.15652945942
2.448167901234568,876.7672679654628,876.2927145497848,0.2295367412416125,0.30952572378155685,0.18447427621844317,0.35471955296398,2054.3491003932863,5757.575574377539
2.4584543209876544,877.3905936450058,876.9128999686621,0.23050263497727988,0.30987518553448457,0.1841248144655154,0.354719552963987,2053.73619942256,5766.972619940775
2.4687407407407407,878.0202606818623,877.5393759775283,0.2314865838880785,0.31023117967593267,0.18376882032406733,0.3547195529639941,2053.111841669419,5776.34789372463
2.479027160493827,878.6563818382658,878.1722545071204,0.2324889101245069,0.3105938227604182,0.18340617723958177,0.35471955296400143,2052.4758227155667,5785.701622985666
2.4893135802469133,879.2990721219383,878.811649713921,0.2335099416209212,0.3109632334350663,0.18303676656493365,0.3547195529640089,2051.827934472599,5795.0340347031
2.4996,879.9484488340153,879.4576780314324,0.23455001218674115,0.31133953247260876,0.18266046752739126,0.3547195529640166,2051.1679651241334,5804.345355620536
2.509886419753087,880.6046316164943,880.110458219516,0.23560946159811327,0.31172284280454743,0.18227715719545257,0.3547195529640244,2050.495699067643,5813.63581228787
2.520172839506173,881.267742499743,880.7701114129761,0.2366886356899378,0.3121132895544504,0.1818867104455496,0.35471955296403246,2049.810916856062,5822.905631103312
2.5304592592592594,881.9379059503633,881.4367611700516,0.23778788644816934,0.31251100007134597,0.18148899992865403,0.35471955296404073,2049.113395139217,5832.155038355566
2.5407456790123457,882.6152489195762,882.1105335211843,0.23890757210229818,0.3129161039631827,0.18108389603681732,0.3547195529640492,2048.4029066051444,5841.384260266158
2.5510320987654325,883.2999008922178,882.7915570182698,0.24004805721791758,0.3133287331303204,0.18067126686967963,0.3547195529640579,2047.6792199213505,5850.593523031919
2.5613185185185188,883.9919939363891,883.4799627845026,0.24120971278927497,0.31374902179901526,0.18025097820098474,0.35471955296406676,2046.9420996760855,5859.783052867653
2.571604938271605,884.6916627537847,884.1758845648702,0.24239291633169952,0.3141771065548603,0.17982289344513966,0.35471955296407587,2046.1913063196937,5868.953076048967
2.581891358024692,885.3990447307004,884.8794587773278,0.24359805197378995,0.31461312637613914,0.17938687362386085,0.35471955296408525,2045.4265961061171,5878.103818955311
2.592177777777778,886.1142799897194,885.590824564661,0.24482551054923887,0.3150572226670479,0.1789427773329521,0.35471955296409485,2044.6477210346272,5887.235508113207
2.6024641975308644,886.837511442065,886.3101238470327,0.2460756896881614,0.31550953929073833,0.1784904607092617,0.3547195529641047,2043.8544287918749,5896.3483702397
2.6127506172839507,887.5688848406006,887.0375013752073,0.24734899390778461,0.3159702226021292,0.17802977739787082,0.3547195529641148,2043.0464626943433,5905.442632286023
2.623037037037037,888.3085488334594,887.7731047844348,0.248645834702345,0.31643942148043147,0.17756057851956852,0.35471955296412516,2042.2235616313035,5914.5185214815
2.6333234567901234,889.0566550182724,888.5170846489768,0.24996663063202973,0.31691728736132724,0.17708271263867273,0.35471955296413576,2041.3854600083787,5923.57626537769
2.6436098765432106,889.8133579969643,889.2695945372452,0.25131180741078407,0.3174039742687387,0.17659602573126132,0.3547195529641467,2040.5318876918257,5932.616091892769
2.653896296296297,890.5788154310746,890.0307910675298,0.2526817979927928,0.3178996388461171,0.1761003611538829,0.3547195529641579,2039.662569953659,5941.638229356186
2.664182716049383,891.3531880975545,890.8008339642737,0.2540770426574307,0.3184044403871781,0.1755955596128219,0.3547195529641694,2038.7772274177462,5950.642906553569
2.6744691358024695,892.1366399449736,891.5798861148585,0.2554979890924524,0.31891854086599997,0.17508145913400006,0.35471955296418123,2037.8755760070208,5959.630352771908
2.684755555555556,892.9293381500584,892.3681136268459,0.25694509247517605,0.31944210496639575,0.17455789503360422,0.3547195529641934,2036.957326891966,5968.600797845009
2.695041975308642,893.7314531744521,893.1656858856152,0.2584188155513834,0.3199753001104598,0.1740246998895402,0.3547195529642059,2036.022186440552,5977.554472199225
2.705328395061729,894.5431588215557,893.9727756123207,0.25991962871162494,0.32051829648617475,0.17348170351382525,0.3547195529642187,2035.069856169815,5986.491606899472
2.715614814814815,895.3646322932565,894.7895589220738,0.26144801006457263,0.32107126707395073,0.1729287329260493,0.3547195529642319,2034.1000326993117,5995.412433695516
2.7259012345679015,896.1960542462725,895.6162153822266,0.2630044455069973,0.3216343876719434,0.1723656123280566,0.35471955296424545,2033.112407706717,6004.31718506854
2.7361876543209878,897.03760884773,896.4529280705954,0.2645894287898586,0.32220783691996524,0.17179216308003475,0.3547195529642594,2032.1066678858865,6013.206094277976
2.746474074074074,897.8894838294168,897.2998836334082,0.2662034615798624,0.32279179632175736,0.17120820367824266,0.3547195529642737,2031.0824949077953,6022.079395408573
2.751617283950617,898.3196467161791,897.7272691138744,0.26702275042631696,0.32308777472053046,0.17091222527946956,0.35471999445711944,2030.5626210223409,6026.510267044934
2.7567604938271604,898.7533365984048,898.1575144250394,0.26785271160489393,0.323386449377051,0.170613550622949,0.35472160095744154,2030.035975084769,6030.937330435546
2.767046913580247,899.6320848092964,899.02789383404,0.269545477495433,0.32399198142821206,0.17000801857178796,0.3547285140579277,2028.9618425801123,6039.780182544527
2.7773333333333334,900.5269424566633,899.9130310717198,0.27128306120553,0.32460858713437346,0.16939141286562656,0.3547405686554609,2027.8592712481825,6048.608262609018
2.7876197530864197,901.4388218870942,900.8142740595422,0.2730667581819582,0.32523646967940606,0.16876353032059394,0.3547580302606896,2026.7274390724824,6057.421894957268
2.797906172839506,902.3684924465604,901.7326211667527,0.2748979271673429,0.32587583866408737,0.16812416133591268,0.3547811808678867,2025.565483872585,6066.221413973958
2.8081925925925924,903.3166568413969,902.6688917015973,0.27677798490161765,0.32652690896775255,0.16747309103224745,0.3548103181762775,2024.3725066662848,6075.007162409813
2.8184790123456787,904.2839930649684,903.6238190618674,0.27870840409109565,0.32718990012302307,0.16681009987697692,0.35484575548051833,2023.14757295831,6083.779490609131
2.828765432098766,905.2711775692933,904.5981018100232,0.2806907131643028,0.3278650359568854,0.16613496404311462,0.35488782194127766,2021.8897128952572,6092.538756239356
2.839051851851852,906.2788981929509,905.5924318805547,0.2827264969802958,0.32855254435483516,0.16544745564516483,0.35493686307736283,2020.5979208161318,6101.285324296572
2.849338271604939,907.3078614282076,906.6075103676962,0.2848173979932027,0.3292526570554568,0.16474734294454318,0.35499324139247246,2019.2711545133989,6110.019567263309
2.859624691358025,908.3587964345465,907.6440565646523,0.2869651175323514,0.3299656093998951,0.1640343906001049,0.3550573370888774,2017.908334420686,6118.741865349615
2.8699111111111115,909.4324569578871,908.70281331857,0.2891714168894134,0.33069163995091616,0.16330836004908383,0.35512954884168996,2016.5083429229435,6127.452606776284
2.880197530864198,910.5296215215761,909.7845503376957,0.2914381178249373,0.33143098985615194,0.16256901014384806,0.3552102946188842,2015.0700240350277,6136.152188071208
2.890483950617284,911.6510916157961,910.8900662962117,0.2937671018858927,0.3321839017442303,0.1618160982557697,0.35530001253825166,2013.5921838347488,6144.841014351107
2.9007703703703704,912.7976868813936,912.0201901301128,0.29616030747512606,0.33295061777646817,0.16104938222353182,0.3553991617554336,2012.0735923224263,6153.519499551919
2.9110567901234568,913.9702351748518,913.1757816382042,0.2986197227470323,0.3337313761620527,0.16026862383794735,0.35550822337838345,2010.5129879288902,6162.188066548921
2.921343209876543,915.1695534618425,914.3577312985828,0.30114737075329817,0.33452640484721413,0.15947359515278586,0.35562770140390204,2008.909086941143,6170.847147063466
2.93162962962963,916.3964119077176,915.5669590099229,0.30374528011160995,0.33533590994889206,0.15866409005110793,0.3557581236718679,2007.2606021143215,6179.497181169624
2.941916049382716,917.651466805573,916.8044111536453,0.3064154284390169,0.3361600543209673,0.15783994567903267,0.3559000428331135,2005.5662785656534,6188.138616057004
2.9522024691358024,918.93513532744,918.0710545824319,0.3091596342896464,0.336998917478684,0.15700108252131603,0.35605403732791296,2003.824962344607,6196.771903410947
2.962488888888889,920.2473616876824,919.3678634777028,0.3119793517925213,0.33785242031341267,0.1561475796865873,0.3562207123708827,2002.035730743997,6205.397494219253
2.972775308641976,921.5871831662259,920.6957852131931,0.31487528376159796,0.3387201841515578,0.1552798158484422,0.3564007009147261,2000.1981377982477,6214.015828799624
2.977918518518519,922.2667090790734,921.3716777109462,0.3163516790819188,0.33915915370280386,0.1548408462971961,0.3564958933293483,1999.261301693419,6218.322405317462
2.9830617283950622,922.9519396345686,922.0556317849525,0.31784666909262915,0.33960127217768915,0.15439872782231084,0.3565946644062539,1998.3126664606227,6222.627317976539
2.9882049382716054,923.6420540473489,922.7476744343408,0.3193597254466033,0.3400462613009378,0.1539537386990622,0.3566971012639632,1997.352567358754,6226.930607958963
2.9933481481481485,924.3359137544714,923.4477488913353,0.3208900333493697,0.3404937375619428,0.15350626243805723,0.35680329261926297,1996.3815214098242,6231.232309030876
2.9984913580246917,925.0319799449451,924.1556491474925,0.32243641461656936,0.34094318468795604,0.153056815312044,0.3569133284760932,1995.400276222303,6235.532444915229
3.003634567901235,925.7282310309731,924.8709123520143,0.32399725023018694,0.34139392623558223,0.15260607376441776,0.3570272995147857,1994.409859132508,6239.83102605977
3.008777777777778,926.4220995026009,925.5926546357299,0.32557042076774056,0.3418451051448923,0.15215489485510772,0.35714529598514505,1993.4116150048355,6244.1280458695555
3.013920987654321,927.1104597630524,926.319346902028,0.32715329491504963,0.34229568143796946,0.1517043185620306,0.3572674058518052,1992.4072135209046,6248.423476661621
3.0190641975308643,927.7897078150093,927.0485582139137,0.32874280546203055,0.3427444625546741,0.15125553744532588,0.35739371195385383,1991.3986009569646,6252.717265870141
3.0242074074074075,928.4559698588259,927.7767476100776,0.33033564856769554,0.343190179338694,0.150809820661306,0.3575242881131473,1990.3878737417156,6257.00933332608
3.0344938271604938,929.7348543386413,929.2104876808055,0.33351900466812306,0.34406773701086074,0.14993226298913925,0.35779847329010694,1988.3678978664473,6265.587843021798
3.0396370370370374,930.3418715242684,929.9048138367242,0.33510501641454243,0.3444978861198824,0.14950211388011764,0.35794214552872644,1987.3615054414122,6269.873996513443
3.0447802469135805,930.92539859351,930.5770954283712,0.33668601943842486,0.3449218296782817,0.14907817032171827,0.3580902111548978,1986.3582912654863,6274.157864022226
3.0499234567901237,931.4856721279826,931.2236460338406,0.33826257408204663,0.3453397889078883,0.1486602110921117,0.3582426516794389,1985.3578997774807,6278.43927637862
3.055066666666667,932.024113962477,931.8426322483299,0.3398362527990169,0.3457523640603725,0.1482476359396275,0.35839943576667327,1984.3593331881896,6282.718071383601
3.06020987654321,932.5430366232388,932.4341045993777,0.34140932213677355,0.3461604126147963,0.1478395873852037,0.3585605259776857,1983.3611532761256,6286.994101453402
3.065353086419753,933.0452930378651,932.9996933845184,0.34298439461956687,0.3465649167867536,0.14743508321324644,0.35872588531194105,1982.3617022826868,6291.267238789978
3.0704962962962963,933.5339530036912,933.5421357285128,0.3445641320956674,0.3469668708903192,0.14703312910968086,0.35889548251592523,1981.3592911510664,6295.537378009161
3.07563950617284,934.0120523273725,934.064788545789,0.3461510386962338,0.34736720279154865,0.1466327972084514,0.35906929572186375,1980.3523309027241,6299.804436633651
3.080782716049383,934.4824262374337,934.571222210978,0.3477473446859568,0.3477667298710574,0.1462332701289426,0.3592473144621375,1979.3394063391308,6304.0683540585505
3.085925925925926,934.9476173033215,935.0649293801326,0.34935496243875847,0.34816614239517824,0.14583385760482176,0.35942954037006924,1978.3193039770747,6308.329089589815
3.0910691358024693,935.4098395010823,935.5491440845948,0.3509754904025816,0.34856600517496983,0.1454339948250302,0.359615986955382,1977.2910095328305,6312.586620041394
3.0962123456790125,935.8709796924006,936.0267485595908,0.3526102438717581,0.34896676949494404,0.14503323050505598,0.3598066788089586,1976.253688395775,6316.840937233928
3.106498765432099,936.7960774274409,936.9717454875287,0.35592652878909803,0.34977233950019176,0.14422766049980826,0.3602009454913812,1974.1493634892263,6325.339960142455
3.116785185185185,937.7325776794502,937.9156030875349,0.35931029007834187,0.35058481907641487,0.14341518092358513,0.3606127156519418,1972.00222193286,6333.826308448285
3.1270716049382714,938.6870285038408,938.8691541163864,0.3627660211319463,0.3514053529641019,0.14259464703589814,0.36104247026605274,1969.8094124765887,6342.3002467962315
3.1373580246913586,939.6638830607137,939.8397078043077,0.3662970773934005,0.35223459701454524,0.14176540298545479,0.36149076748673725,1967.5688059477134,6350.762115701654
3.147644444444445,940.66626166423,940.8322015079118,0.369906200683625,0.35307292840984467,0.14092707159015533,0.36195822212667694,1965.2786625433534,6359.212306399896
3.1579308641975317,941.696472144316,941.8500571563765,0.37359582342192976,0.3539205695461786,0.14007943045382135,0.3624454918425238,1962.9374387892103,6367.651245174587
3.168217283950618,942.7563468025107,942.8957676879668,0.37736823733545766,0.35477765798148986,0.1392223420185101,0.3629532682265355,1960.543680486195,6376.079383958232
3.1785037037037043,943.8474527694813,943.9712783034166,0.38122568384681593,0.3556442847234816,0.13835571527651838,0.3634822712209555,1958.095965355602,6384.497194904977
3.1887901234567906,944.9712197673641,945.0782254258534,0.385170400928026,0.3565205146380485,0.1374794853619515,0.3640332456614088,1955.5928733082706,6392.905167400264
3.199076543209877,946.12901601602,946.2180823525088,0.3892046463884493,0.35740639703166543,0.1365936029683346,0.3646069591201187,1953.032971667398,6401.303806528805
3.209362962962963,947.322192497125,947.3922460521677,0.3933307086293541,0.358301970947793,0.13569802905220704,0.36520420050051866,1950.414808344305,6409.693632397337
3.2196493827160495,948.5521083321979,948.6020879078374,0.39755091078267235,0.3592072676698704,0.1347927323301296,0.36582577903166824,1947.7369092122178,6418.0751799492355
3.229935802469136,949.8201450772365,949.848982869987,0.40186761132180554,0.3601223117695189,0.13387768823048107,0.3664725234410398,1944.9977777186864,6426.448999056953
3.2402222222222226,951.1277145863315,951.1343259089867,0.40628320270772345,0.36104712140443257,0.13295287859556745,0.36714528116678435,1942.1958957446907,6434.815654767966
3.250508641975309,952.476263156676,952.459541087518,0.4108001088307455,0.36198170822935666,0.13201829177064334,0.3678449175211857,1939.3297252279422,6443.175727632687
3.260795061728395,953.8672735029313,953.8260863661006,0.41542078159454304,0.3629260771037265,0.1310739228962735,0.3685723147471093,1936.3977103304799,6451.5298140731165
3.2710814814814815,955.3022654245613,955.2354559245664,0.42014769677984365,0.3638802256865415,0.1301197743134585,0.3693283709266097,1933.3982800633273,6459.87852676821
3.281367901234568,956.7827956346014,956.6891809979575,0.4249833492216708,0.3648441439618887,0.1291558560381113,0.3701139987105258,1930.3298513467403,6468.22249504135
3.291654320987655,958.3104569934934,958.1888297712529,0.4299302472833063,0.3658178137150697,0.12818218628493025,0.3709301238430255,1927.1908325167158,6476.562365240368
3.3019407407407413,959.886877265118,959.7360066184035,0.434990906585602,0.3668012079678583,0.1271987920321417,0.3717776834576039,1923.9796273040104,6484.898801103135
3.3122271604938276,961.513717441524,961.3323508252791,0.4401678429383196,0.36779429037596967,0.12620570962403035,0.3726576241221624,1920.69463931951,6493.232484102979
3.322513580246914,963.1926696434529,962.9795348546011,0.4454635644142828,0.368797014589297,0.125202985410703,0.37357089961118894,1917.3342770835197,6501.564113768556
3.3328,964.9254545816787,964.6792621655018,0.4508805625043026,0.36980932357434987,0.12419067642565015,0.37451846838315916,1913.8969596383413,6509.894407972873
3.3430864197530865,966.7138185516192,966.433264574931,0.45642130228972,0.3708311488978764,0.12316885110212361,0.3755012907413254,1910.3811227842173,6518.2241031858675
3.3533728395061733,968.5595299263674,968.2432991337358,0.46208821156955665,0.371862409970524,0.12213759002947601,0.37652032565624366,1906.7852259786205,6526.553954684663
3.3636592592592596,970.464375108977,970.1111444819305,0.4678836688805425,0.37290301324942493,0.12109698675057506,0.3775765272288165,1903.107759938058,6534.884736715085
3.373945679012346,972.4301539023073,972.0385966428015,0.4738099903508062,0.3739528513987282,0.12004714860127183,0.3786708407734075,1899.3472549799699,6543.217242597621
3.3842320987654326,974.4586742534343,974.0274642126777,0.47986941533188554,0.37501180240729354,0.11898819759270646,0.3798041985017876,1895.5022901398331,6551.55228477043
3.394518518518519,976.5517463292875,976.0795629017434,0.4860640907591814,0.37607972866302475,0.11792027133697523,0.38097751479039155,1891.5715030951242,6559.890694761501
3.4048049382716052,978.7111758807339,978.1967093808972,0.49239605419820837,0.3771564759836338,0.11684352401636622,0.3821916810156624,1887.5536009231998,6568.233323081571
3.4150913580246915,980.9387568537935,980.3807143902411,0.4988672155432055,0.3782418726040063,0.11575812739599367,0.3834475599452174,1883.4473717143128,6576.581039028814
3.4253777777777783,983.2362632091508,982.6333750663679,0.5054793373460817,0.37933572812078453,0.11466427187921549,0.3847459796762485,1879.251697053739,6584.934730395914
3.435664197530865,985.6054399146878,984.9564664482576,0.5122340137674312,0.3804378323952976,0.11356216760470239,0.386087727117039,1874.9655653782606,6593.295303069605
3.4459506172839514,988.0479930805664,987.3517321254186,0.5191326481576537,0.3815479544165648,0.1124520455834352,0.3874735410127774,1870.5880862019048,6601.663680512412
3.4562370370370377,990.5655792125099,989.8208739970365,0.5261764292951414,0.38266584112676505,0.11133415887323496,0.38890410452302954,1866.1185051938344,6610.04080311592
3.4665234567901244,993.1597935665246,992.3655411174558,0.5333663063301289,0.3837912162123251,0.11020878378767492,0.39038003736529847,1861.5562200775476,6618.427627414727
3.4768098765432107,995.8321575974197,994.987317611424,0.5407029625071367,0.3849237788646174,0.10907622113538257,0.3919018875470691,1856.900797305114,6626.825125149982
3.487096296296297,998.5841055042353,997.6877096522971,0.5481867877658866,0.38606320251518794,0.10793679748481202,0.3934701227175519,1852.1519894430692,6635.234282171472
3.4973827160493833,1001.4169698880727,1000.4681315078836,0.555817850349936,0.3872091335514427,0.10679086644855733,0.39508512117995886,1847.3097531879505,6643.656097167247
3.5076691358024696,1004.3319665518768,1003.3298906718701,0.5635958675837996,0.38836119001981756,0.10563880998018246,0.3967471626154538,1842.3742679094685,6652.0915802101
3.517955555555556,1007.3301784873519,1006.2741721137843,0.5715201760125542,0.3895189603246225,0.10448103967537746,0.3984564185807743,1837.3459545982053,6660.541751110643
3.5282419753086423,1010.4125391113154,1009.3020216971714,0.5795897011323334,0.39068200193198466,0.10331799806801538,0.4002129428527379,1832.2254950729143,6669.0076375674
3.5385283950617286,1013.5798148322237,1012.414328833961,0.5878029269750171,0.39184984008960205,0.10215015991039798,0.40201666170418415,1827.0138512803383,6677.490273105187
3.548814814814815,1016.8325870470733,1015.6118084626764,0.5961578658449878,0.3930219665743477,0.10097803342565231,0.40386736420708597,1821.7122844985333,6685.990694794229
3.559101234567901,1020.1712336890962,1018.8949824589295,0.604652028539131,0.3941978384811039,0.09980216151889612,0.40576469266926796,1816.3223742335554,6694.5099407437565
3.5693876543209875,1023.595910467199,1022.2641606081831,0.6132823954122327,0.39537687706754954,0.09862312293245047,0.407708133321038,1810.8460365797064,6703.049047365533
3.5796740740740742,1027.1065319584939,1025.719421292623,0.6220453886774422,0.3965584666709306,0.09744153332906941,0.409697007376684,1805.2855417960768,6711.609046404608
3.5899604938271605,1030.70275273499,1029.2605920656333,0.6309368463543432,0.39774195371409093,0.09625804628590907,0.4117304626028178,1799.6435308376113,6720.190961736779
3.600246913580247,1034.3839487239795,1032.8872303082571,0.6399519982942105,0.39892664581919507,0.09507335418080493,0.4138074655305551,1793.923030568111,6728.795805934631
3.6105333333333336,1038.1491990182315,1036.5986041814735,0.6490854447220576,0.400111811048596,0.09388818895140404,0.41592679445112984,1788.1274673762234,6737.424576606683
3.6208197530864203,1041.9972683661886,1040.393674105483,0.6583311377370871,0.40129667729315766,0.09270332270684231,0.41808703333440717,1782.260678914201,6746.078252517013
3.6311061728395067,1045.9265905833013,1044.2710750117703,0.6676823662062027,0.4024804318289933,0.0915195681710067,0.420286566806597,1776.3269236836127,6754.757789495762
3.641392592592593,1049.9352531328686,1048.2290996248312,0.6771317444686741,0.40366222106398375,0.09033777893601624,0.4225235763170658,1770.3308882027204,6763.464116154089
3.6516790123456793,1054.0209831277512,1052.2656830374463,0.6866712052434276,0.40484115049557046,0.08915884950442954,0.424796037614392,1764.2776915071063,6772.19812942039
3.6619654320987656,1058.181135002693,1056.3783888457806,0.696291997093693,0.4060162849011267,0.08798371509887333,0.42710171963870003,1758.172886758462,6780.9606899178825
3.672251851851852,1062.4126801003827,1060.564397107822,0.7059846867570742,0.40718664878168076,0.08681335121831922,0.42943818492095975,1752.022459766061,6789.752617206922
3.682538271604938,1066.7121984027,1064.8204943805324,0.7157391665931548,0.40835122707886484,0.0856487729211352,0.4318027915605927,1745.832824260932,6798.574684918573
3.692824691358025,1071.0758726217832,1069.1430660773367,0.7255446673364526,0.4095089661836752,0.08449103381632479,0.4341926968307487,1739.6108138035636,6807.427615808962
3.7031111111111112,1075.4994848437984,1073.5280913682627,0.7353897762711825,0.4106587752539511,0.08334122474604891,0.436604862436483,1733.3636702512372,6816.312076766742
3.7133975308641975,1079.978415891911,1077.9711408203648,0.7452624608674856,0.4117995278553968,0.08220047214460317,0.4390360614253558,1727.0990287598288,6825.228673808491
3.7236839506172843,1084.5076475443977,1082.467376946352,0.7551500978383142,0.4129300639385073,0.08106993606149271,0.44148288672332997,1720.8248993459679,6834.177947098993
3.7339703703703706,1089.0817677097368,1087.0115577951772,0.765039507494054,0.41404919216091846,0.07995080783908155,0.44394176124197254,1714.5496450875587,6843.160366035132
3.744256790123457,1093.6949506840049,1091.5980185815101,0.7749169258500854,0.4151556850298864,0.07884431497011357,0.4464089326444509,1708.2819998227271,6852.17638639753
3.754543209876543,1098.337492141122,1096.217486060381,0.7847598693074231,0.41624737642772275,0.07775262357227729,0.4488784324497671,1702.0362303586126,6861.23401739365
3.7648296296296295,1102.9994007436378,1100.8601577085922,0.7945462639293748,0.4173222050689213,0.07667779493107867,0.45134433556115117,1695.8263435540719,6870.340635831955
3.775116049382716,1107.6736660737226,1105.5189503368238,0.8042615880019929,0.41837898259836226,0.07562101740163772,0.45380257635657834,1689.661554058964,6879.496393571654
3.785402469135803,1112.353088512896,1110.1866632393662,0.813891144967978,0.41941651790811135,0.07458348209188863,0.45624902870825956,1683.551187468748,6888.701348418945
3.7956888888888893,1117.0302722051617,1114.8559228836316,0.8234201271041259,0.42043362155938957,0.07356637844061044,0.45867952459926553,1677.5046399184132,6897.955461340394
3.805975308641976,1121.6976380933709,1119.5191738986482,0.8328336785551251,0.4214291103556002,0.07257088964439981,0.46108987235621823,1671.531338084835,6907.258593737926
3.8162617283950624,1126.3474469146174,1124.168692215732,0.8421169579351627,0.42240181206249944,0.07159818793750054,0.4634758745784725,1665.6406994633705,6916.61050497884
3.8265481481481487,1130.9718273365938,1128.7966090678462,0.8512552002490571,0.42335057025662354,0.07064942974337644,0.4658333456928441,1659.8420930762481,6926.010850281523
3.836834567901235,1135.562806849043,1133.394940475048,0.860233777688151,0.4242742492754474,0.06972575072455259,0.4681581289994934,1654.1448008949671,6935.459179012428
3.8471209876543213,1140.1123441367745,1137.9556195625098,0.8690382587826687,0.4251717392388199,0.06882826076118011,0.4704461130518986,1648.5579803055916,6944.954933426861
3.8574074074074076,1144.6123621665904,1142.4705303019182,0.8776544653768144,0.4260419611093581,0.0679580388906419,0.47269324721013456,1643.0906279556093,6954.497447872905
3.867693827160494,1149.0547814488662,1146.931541834372,0.8860685269052677,0.42688387175898557,0.06711612824101444,0.47489555621164947,1637.751545313169,6964.085948469141
3.8779802469135802,1153.4315530364227,1151.3305427906807,0.894266931475144,0.42769646900939245,0.06630353099060757,0.4770491536123318,1632.5493062533865,6973.719553260059
3.888266666666667,1157.7346908676905,1155.659475141888,0.9022365732881155,0.428478796615815,0.065521203384185,0.4791502539601227,1627.4922269669783,6983.397272847082
3.8985530864197533,1161.9563030790016,1159.9103671658147,0.909964795968509,0.429229949166222,0.06477005083377799,0.48119518357199836,1622.5883384667252,6993.118011487488
3.9088395061728396,1166.088621915644,1164.0753651391003,0.9174394313912743,0.4299490768718756,0.06405092312812438,0.48318038979142486,1617.8453619494626,7002.880568647951
3.919125925925926,1170.1240318683203,1168.1467633736497,0.9246488336255058,0.43063539023048947,0.06336460976951055,0.4851024486060142,1613.270687257461,7012.683640993751
3.929412345679012,1174.0550956520299,1172.1170322174908,0.9315819076212821,0.4312881645501168,0.06271183544988321,0.48695807050257744,1608.8713546753984,7022.52582478898
3.9396987654320994,1177.8745776269857,1175.97884363419,0.9382281322657424,0.4319067443308611,0.06209325566913886,0.48874410442713506,1604.6540403002894,7032.405618677113
3.9499851851851857,1181.5754642331462,1179.7250939610622,0.944577577413135,0.43249054751310784,0.06150945248689216,0.49045753969818223,1600.625045235191,7042.321426805098
3.960271604938272,1185.150980966601,1183.348923421522,0.9506209144456256,0.43303906961611277,0.06096093038388722,0.4920955056890154,1596.790288887917,7052.271562247386
3.9705580246913583,1188.5946053603216,1186.843731926252,0.9563494198362482,0.4335518878108091,0.06044811218919088,0.49365526904400664,1593.1553067101931,7062.2542506790505
3.9808444444444446,1191.900075333073,1190.2031906342322,0.9617549710469088,0.4340286649977236,0.059971335002276395,0.495134228116579,1589.7252528005486,7072.267634238736
3.991130864197531,1195.0613921223292,1193.421248647299,0.9668300338789558,0.43446915399829045,0.05953084600170953,0.4965299042013107,1586.504907930922,7082.309775512391
4.001417283950618,1198.0728167946488,1196.4921340645226,0.9715676400645925,0.4348732020211055,0.05912679797889449,0.4978399289602216,1583.4986937658705,7092.378661556546
4.011703703703704,1200.9288589899859,1199.4103484002808,0.9759613533854021,0.43524075564297476,0.0587592443570252,0.49906202718335774,1580.710694361817,7102.472207864327
4.021990123456791,1203.6242560392252,1202.1706530331865,0.9800052218333772,0.43557186666392117,0.05842813333607883,0.500193993625576,1578.1446865229293,7112.588262156421
4.0322765432098775,1206.1539397866725,1204.76804583921,0.9836937121290991,0.4358666993842821,0.05813330061571789,0.5012336620380287,1575.8041813521381,7122.724607849906
4.042562962962964,1208.512987160864,1207.1977253694708,0.9870216210050751,0.43612554016458716,0.057874459835412825,0.502178863510469,1573.6924805456654,7132.878967015379
4.05284938271605,1210.6965484288937,1209.4550386945639,0.9899839545658583,0.4363488106719593,0.0576511893280407,0.5030273695771663,1571.8127529441958,7143.049002568781
4.057992592592593,1211.7210016372126,1210.5176267837435,0.9913264876480821,0.4364472804111142,0.0575527195888858,0.5034146302521989,1570.9608581663927,7148.13915276975
4.063135802469136,1212.6997435141352,1211.5354068924366,0.9925757620639901,0.4365370872081709,0.05746291279182913,0.5037768127487451,1570.1681400091668,7153.232319339671
4.06827901234568,1213.6321345707338,1212.507801018635,0.9937311273022018,0.4366183321235958,0.05738166787640417,0.5041135806503785,1569.4350112498685,7158.328193718373
4.073422222222223,1214.5175107674154,1213.434220340307,0.9947919008857526,0.43669113053244885,0.05730886946755116,0.5044245716608846,1568.7619049493806,7163.426463522277
4.078565432098766,1215.355174163389,1214.3140592239474,0.9957573545238549,0.4367556143018986,0.057244385698101426,0.504709390416433,1568.1492832394201,7168.526812378901
4.083708641975309,1216.1443813070684,1215.1466880859834,0.9966266972033141,0.43681193472914004,0.057188065270859983,0.5049675994301086,1567.59764805176,7173.628919693374
4.088851851851852,1216.8843287732457,1215.9314449635815,0.9973990546112563,0.4368602666117956,0.057139733388204404,0.5051987075766247,1567.1075541753887,7178.732460330374
4.093995061728395,1217.5741352150146,1216.6676258015605,0.9980734445593031,0.4369008140718889,0.057099185928111106,0.5054021553767793,1566.6796248509268,7183.837104190843
4.0991382716049385,1218.2128195912237,1217.3544739562753,0.9986487493495722,0.4369338192293048,0.057066180770695224,0.5055772963259745,1566.3145693055815,7188.942515659422
4.104281481481482,1218.7992767686767,1217.9911709156145,0.9991236905872006,0.4369595757980582,0.05704042420194178,0.5057233741850817,1566.0131987356817,7194.0483529002695
4.109424691358025,1219.3322579400228,1218.5768348841814,0.9994968282106652,0.43697845189967,0.057021548100330006,0.5058394998162349,1565.7764269219808,7199.154267002948
4.114567901234568,1219.8103892373063,1219.11054972268,0.9997666693304103,0.4369909321585813,0.05700906784141866,0.5059246484653884,1565.6052011668835,7204.2599010937965
4.11799670781893,1220.098011941534,1219.4370846989018,0.9998886333903887,0.43699602641019325,0.05700397358980673,0.5059636809873761,1565.527809743796,7207.6633215826505
4.119711111111112,1220.2323871097242,1219.591510429829,0.99993227243451,0.43699770703188184,0.05700229296811817,0.5059777890350742,1565.5001189000561,7209.3648900603675
4.121425514403293,1220.360492872853,1219.7400489095205,0.9999645341847706,0.4369988714671976,0.05700112853280242,0.505988296947743,1565.4796474368693,7211.066345697323
4.122568449931413,1220.4424632889416,1219.8358254868058,0.9999798935414449,0.43699939051146736,0.05700060948853269,0.5059933349409704,1565.4699012668013,7212.2005800416055
4.123711385459534,1220.5217668739924,1219.9290361269027,0.9999905654978394,0.4369997297096935,0.057000270290306534,0.5059968568720291,1565.4631294530996,7213.334754247704
4.124854320987655,1220.5985406490624,1220.019734165277,0.9999969152703329,0.43699991742507227,0.05700008257492776,0.5059989665135379,1565.4591002503194,7214.468864528583
4.125711522633746,1220.6546103389371,1220.086162591263,0.9999992241850211,0.43699998053296446,0.05700001946703555,0.505999738774325,1565.4576351449962,7215.31940316396
4.126140123456791,1220.6822220449558,1220.1188848235092,0.9999997468282956,0.43699999394351197,0.05700000605648808,0.5059999144568715,1565.4573035054395,7215.744657840666
4.126568724279837,1220.709597966912,1220.151293278177,0.9999999634917649,0.4369999992622565,0.057000000737743466,0.505999987527284,1565.4571660231827,7216.169902566266
4.12678302469136,1220.723212661091,1220.1673842147839,0.9999999946343184,0.4369999999959172,0.057000000004082764,0.5059999980610442,1565.4571462618976,7216.382521160474
4.126997325102882,1220.7367888859046,1220.1834024736684,0.999999999998642,0.4370000001187651,0.05699999988123488,0.5059999998790164,1565.4571428580045,7216.595137226308
4.127211625514404,1220.750334957836,1220.1993503884892,1.0000000000047737,0.43700000011826584,0.056999999881734154,0.5059999998817342,1565.4571428541135,7216.807750754644
4.127425925925927,1220.7638534203643,1220.2152294661055,1.0000000000047737,0.4370000001176283,0.05699999988237172,0.5059999998823718,1565.4571428541135,7217.020361737924
4.1282831275720175,1220.8176605793801,1220.2780807334605,1.0000000000047737,0.4370000001150762,0.056999999884923803,0.5059999998849238,1565.4571428541135,7217.870780076924
4.129997530864198,1220.9240866536068,1220.4008195399779,1.0000000000047737,0.4370000001099633,0.05699999989003671,0.5059999998900367,1565.4571428541135,7219.571492501083
4.131711934156379,1221.0291006972795,1220.5200351807619,1.0000000000047737,0.43700000010483886,0.05699999989516116,0.5059999998951612,1565.4571428541135,7221.2720366357435
4.13342633744856,1221.1328860127599,1220.6361834963234,1.0000000000047737,0.4370000000997029,0.056999999900297076,0.5059999999002971,1565.4571428541135,7222.972409714451
4.1351407407407414,1221.2356022342865,1220.749661463095,1.0000000000047737,0.43700000009455564,0.05699999990544437,0.5059999999054444,1565.4571428541135,7224.672609348969
4.136855144032923,1221.3373883852269,1220.8608147983055,1.0000000000047737,0.43700000008939704,0.056999999910602964,0.505999999910603,1565.4571428541135,7226.372633480356
4.138569547325104,1221.4383655401818,1220.9699445816261,1.0000000000047737,0.4370000000842272,0.0569999999157728,0.5059999999157728,1565.4571428541135,7228.072480336381
4.140283950617285,1221.5386391430684,1221.0773130208659,1.0000000000047737,0.43700000007904616,0.056999999920953844,0.5059999999209538,1565.4571428541135,7229.772148394442
4.141998353909465,1221.6383010256734,1221.1831484724848,1.0000000000047737,0.437000000073854,0.05699999992614604,0.5059999999261461,1565.4571428541135,7231.471636349275
4.143712757201646,1221.7374311654153,1221.2876498133278,1.0000000000047737,0.43700000006865064,0.05699999993134936,0.5059999999313494,1565.4571428541135,7233.170943084846
4.145427160493828,1221.8360992160276,1221.3909902474938,1.0000000000047737,0.4370000000634362,0.05699999993656379,0.5059999999365637,1565.4571428541135,7234.870067649865
4.14885596707819,1222.032283837746,1221.5947722253738,1.0000000000047737,0.4370000000529741,0.05699999994702588,0.5059999999470258,1565.4571428541135,7238.267767162259
4.152284773662552,1222.2272522212165,1221.7954824116111,1.0000000000047737,0.4370000000424678,0.0569999999575322,0.5059999999575322,1565.4571428541135,7241.664729826475
4.155713580246914,1222.4213057087948,1221.9938701194314,1.0000000000047737,0.43700000003191725,0.05699999996808275,0.5059999999680828,1565.4571428541135,7245.060952112368
4.1591423868312765,1222.6146728825454,1222.1905037324366,1.0000000000047737,0.4370000000213225,0.056999999978677524,0.5059999999786775,1565.4571428541135,7248.456431648437
4.162571193415638,1222.8075271357395,1222.385814400338,1.0000000000047737,0.4370000000106834,0.056999999989316576,0.5059999999893166,1565.4571428541135,7251.851166941122
4.166,1223.0,1222.5801291795035,1.0000000000047737,0.437,0.057,0.5060000000000001,1565.4571428541135,7255.245157161969
