z,T,t,fs,x,y,w,rhob,p
0.0,556.2446259892542,298.0,0.0,0.22647898799260446,0.26752101200739553,0.3547195632203514,2200.0,2040.0
0.0018081597222222223,572.9934630704946,336.590664719365,3.4322925715619705e-07,0.22647911217344696,0.26752088782655303,0.3547195632203514,2199.9997822063265,2043.7339254544963
0.0036163194444444446,588.2570878409168,371.52139785195146,1.275044608060524e-06,0.2264794493055909,0.26752055069440905,0.3547195632203514,2199.9991909295513,2047.6352361611475
0.007232638888888889,614.9411073439297,432.0683866677935,6.6764246536432645e-06,0.22648140353271684,0.26751859646728315,0.3547195632203514,2199.9957635224246,2055.8848701198394
0.010848958333333334,637.329167144682,482.38167593505676,1.9812272910348352e-05,0.2264861561016471,0.26751384389835287,0.3547195632203514,2199.987428263741,2064.6487900660013
0.014465277777777778,656.2114371137282,524.4859720087579,4.354429744870648e-05,0.22649474238250764,0.2675052576174924,0.3547195632203514,2199.9723692770845,2073.841687649037
0.021697916666666667,685.7985156564273,589.8698585732594,0.00012851017964506692,0.2265254831617834,0.2674745168382166,0.3547195632203514,2199.918454783436,2093.234922130496
0.028930555555555557,707.2913153736249,636.9142616693621,0.0002644758881010343,0.22657467575208753,0.26742532424791243,0.3547195632203514,2199.832178714319,2113.6042454835274
0.03616319444444444,723.0507574538233,671.1528359649813,0.0004465832103729368,0.2266405624451195,0.2673594375548805,0.3547195632203514,2199.716623813738,2134.616753629149
0.043395833333333335,734.6874080710942,696.2744275690055,0.0006677135866192284,0.22672056773561527,0.2672794322643847,0.3547195632203514,2199.5763071129936,2156.0316080049843
0.05062847222222222,743.3279649699924,714.8174610477774,0.0009208964944862447,0.22681216967848863,0.2671878303215114,0.3547195632203514,2199.415651707256,2177.674721659261
0.05786111111111111,749.7749011058297,728.5684440070569,0.001200122894151534,0.22691319419442593,0.2670868058055741,0.3547195632203514,2199.2384705898226,2199.420517280174
0.06509375,754.6071983201217,738.80514696149,0.001500495670194791,0.2270218694999733,0.26697813050002667,0.3547195632203514,2199.0478711903042,2221.178739839909
0.07232638888888888,758.2465180943461,746.4522037800184,0.0018181367525458498,0.22713679250376087,0.26686320749623915,0.3547195632203514,2198.846314310363,2242.884889691493
0.07955902777777778,761.0020431735021,752.1844066210515,0.0021500238718709644,0.22725686974436504,0.26674313025563495,0.3547195632203514,2198.635717709418,2264.49326070617
0.08679166666666667,763.1016037087552,756.4972636370264,0.00249382405690713,0.22738125714940294,0.26661874285059706,0.3547195632203514,2198.4175617577184,2285.9718615285274
0.09402430555555556,764.7136845022221,759.7562686984851,0.0028477471167356683,0.22750930702520655,0.26649069297479344,0.3547195632203515,2198.192982408126,2307.2987035897427
0.10125694444444445,765.9632046861585,762.2318924598152,0.003210424639497216,0.22764052427838263,0.2663594757216174,0.3547195632203515,2197.9628479766116,2328.4590843863616
0.10848958333333335,766.9429528575645,764.1247548837862,0.0035808132735178203,0.22777453142278398,0.266225468577216,0.3547195632203515,2197.727820514527,2349.443597401886
0.11572222222222224,767.7219402305826,765.5839115773028,0.003958118843286914,0.22791104112456026,0.26608895887543976,0.3547195632203515,2197.48840396027,2370.24667362288
0.12295486111111113,768.3515389217029,766.7202352605257,0.0043417374866045275,0.22804983490549266,0.26595016509450736,0.35471956322035153,2197.2449814902857,2390.8655125508863
0.1301875,768.8700126042228,767.616261535808,0.004731210330394935,0.22819074674463757,0.2658092532553624,0.35471956322035153,2196.9978442792076,2411.299298914399
0.1374201388888889,769.3058714350608,768.3334624529842,0.005126188765187667,0.22833365051458357,0.26566634948541645,0.35471956322035153,2196.7472135346843,2431.5486291082448
0.1446527777777778,769.6803622215518,768.91763576222,0.005526407933408306,0.22847845038947642,0.26552154961052354,0.3547195632203516,2196.493257320198,2451.6150916653364
0.1518854166666667,770.0093198496747,769.4029065645921,0.005931666540576632,0.22862507354068162,0.26537492645931837,0.3547195632203516,2196.236103365724,2471.5009608826363
0.15911805555555558,770.3045454455914,769.8147031703365,0.006341811511105535,0.22877346458522996,0.26522653541477004,0.3547195632203516,2195.9758488042817,2491.208973571925
0.16635069444444447,770.5748330775386,770.1719724732067,0.00675672634352635,0.22892358137272129,0.2650764186272787,0.35471956322035164,2195.7125675610464,2510.74216686177
0.17358333333333334,770.8267350295961,770.48883036582,0.007176322283572384,0.22907539179173333,0.2649246082082667,0.35471956322035164,2195.446315954404,2530.103760818401
0.18081597222222223,771.0651323936178,770.7757918323201,0.0076005316394898575,0.2292288713512915,0.2647711286487085,0.35471956322035164,2195.1771369376734,2549.297073945937
0.18804861111111112,771.2936605716452,771.0406880055996,0.008029302723460068,0.22938400135066808,0.26461599864933194,0.3547195632203517,2194.9050633089905,2568.3254627831725
0.19528125000000002,771.515026593869,771.2893499308827,0.008462596025840208,0.2295407674952171,0.2644592325047829,0.3547195632203517,2194.6301201389174,2587.1922791367588
0.2025138888888889,771.731245746074,771.5261183885295,0.008900381323097725,0.22969915885002068,0.2643008411499793,0.3547195632203517,2194.352326605581,2605.900840199952
0.2097465277777778,771.9438180046279,771.7542239968417,0.00934263549228127,0.2298591670491615,0.2641408329508385,0.35471956322035175,2194.071697381484,2624.454408064463
0.2169791666666667,772.1538595686565,771.976070563295,0.009789340859739867,0.2300207856982871,0.2639792143017129,0.35471956322035175,2193.788243681315,2642.8561760592875
0.22421180555555562,772.3622008972499,772.1934462737297,0.010240483953554426,0.23018400992323754,0.26381599007676243,0.35471956322035175,2193.501974053586,2661.1092600323746
0.23144444444444448,772.5694597643826,772.4076810638579,0.010696054560868942,0.2303488360289868,0.2636511639710132,0.3547195632203518,2193.2128949787902,2679.216693193003
0.23867708333333337,772.7760956839294,772.6197638596828,0.011156045015381269,0.23051526124185562,0.2634847387581444,0.3547195632203518,2192.921011321526,2697.1814235021534
0.24590972222222227,772.9824504447815,772.8304298981983,0.011620449658501161,0.23068328351455786,0.26331671648544214,0.35471956322035186,2192.62632667241,2715.006312869996
0.25314236111111116,773.1887782924872,773.0402257462583,0.01208926443150285,0.23085290137864065,0.2631470986213594,0.35471956322035186,2192.3288436068788,2732.6941376194814
0.260375,773.39526839541,773.249557699901,0.012562486566456988,0.23102411383266314,0.26297588616733686,0.3547195632203519,2192.0285638813016,2750.2475898219595
0.2676076388888889,773.6020615628048,773.4587278018238,0.01304011435163455,0.23119692025731928,0.2628030797426807,0.3547195632203519,2191.7254885818443,2767.6692792186523
0.2748402777777778,773.809262681735,773.6679606366836,0.013522146953050837,0.23137132035087224,0.2626286796491278,0.3547195632203519,2191.4196182377054,2784.9617355210016
0.2820729166666667,774.0169499663126,773.8774232595266,0.014008584278330663,0.2315473140799005,0.2624526859200995,0.354719563220352,2191.1109529075015,2802.1274109409796
0.28930555555555554,774.2251818341534,774.0872400126117,0.014499426872481954,0.23172490164158874,0.26227509835841123,0.354719563220352,2190.7994922454013,2819.1686828449324
0.29653819444444446,774.434002017149,774.297503538346,0.01499467583773442,0.23190408343472527,0.26209591656527476,0.35471956322035203,2190.485235551993,2836.0878564555987
0.3037708333333334,774.6434433587269,774.5082829623485,0.015494332771537509,0.23208486003726958,0.2619151399627304,0.35471956322035203,2190.1681818136262,2852.8871675495952
0.3110034722222223,774.8535306342739,774.7196299718933,0.01599839971827174,0.23226723218888154,0.2617327678111184,0.3547195632203521,2189.8483297330545,2869.568785114132
0.31823611111111116,775.0642826453284,774.9315833295973,0.016506879131327413,0.23245120077720133,0.26154879922279867,0.3547195632203521,2189.5256777534955,2886.1348139386655
0.32546875000000003,775.2757137740235,775.1441722240926,0.01701977384303277,0.23263676682696935,0.2613632331730307,0.35471956322035214,2189.200224077717,2902.587297125815
0.33270138888888895,775.4878351365049,775.3574187565512,0.01753708704053687,0.2328239314913008,0.26117606850869923,0.35471956322035214,2188.871966683335,2918.9282185120483
0.3399340277777778,775.7006554384874,775.5713397853277,0.018058822246221445,0.23301269604459846,0.26098730395540154,0.3547195632203522,2188.5409033352475,2935.15950499305
0.3471666666666667,775.9141816096462,775.7859482939692,0.018584983301568648,0.23320306187671616,0.26079693812328386,0.35471956322035225,2188.2070315958704,2951.283028751793
0.3543993055555556,776.1284192738431,776.0012544054093,0.019115574353676584,0.23339503048807997,0.26060496951192,0.35471956322035225,2187.8703488336914,2967.300609389493
0.36163194444444446,776.3433730975373,776.2172661336015,0.01965059984381402,0.2335886034855474,0.26041139651445255,0.3547195632203523,2187.5308522305354,2983.214015961097
0.36886458333333333,776.5590470478356,776.433989940372,0.020190064497555327,0.23378378257883814,0.26021621742116186,0.3547195632203523,2187.188538787823,2999.0249689179545
0.37609722222222225,776.7754445835354,776.6514311478226,0.02073397331614918,0.23398056957741112,0.2600194304225889,0.35471956322035236,2186.843405332047,3014.73514196091
0.3797135416666667,776.8839156734358,776.760422205286,0.021007595923627997,0.2340795666332167,0.25992043336678333,0.35471956322035236,2186.6697800609186,3022.552946699346
0.3833298611111111,776.9925687965833,776.8695942438276,0.021282331568847065,0.2341789663876892,0.2598210336123108,0.35471956322035236,2186.495448519642,3030.3461638072895
0.3869461805555556,777.1014042992601,776.9789477310535,0.02155818095121229,0.2342787690938748,0.2597212309061252,0.3547195632203524,2186.320410264415,3038.1149901222184
0.39056250000000003,777.2104225163366,777.0884831073212,0.021835144786054767,0.23437897501058122,0.25962102498941875,0.3547195632203524,2186.144664841329,3045.859619876474
0.3941788194444445,777.3196237731684,777.198200789846,0.022113223804447732,0.2344795844023119,0.2595204155976881,0.3547195632203524,2185.9682117864863,3053.5802447456963
0.39779513888888896,777.4290083872286,777.3081011762326,0.02239241875303059,0.23458059753920202,0.259419402460798,0.3547195632203525,2185.791050626113,3061.2770538961317
0.40141145833333336,777.5385766695082,777.4181846475101,0.022672730393839526,0.23468201469695738,0.2593179853030426,0.3547195632203525,2185.6131808766636,3068.9502340308354
0.4050277777777778,777.6483289257208,777.5284515707415,0.022954159504144013,0.23478383615679518,0.25921616384320484,0.3547195632203525,2185.4346020449275,3076.599969434801
0.4086440972222223,777.7582654573359,777.6389023012665,0.023236706876288808,0.23488606220538694,0.25911393779461306,0.35471956322035253,2185.2553136281285,3084.2264420190427
0.41226041666666674,777.8683865624677,777.749537184629,0.023520373317540984,0.23498869313480303,0.25901130686519697,0.35471956322035253,2185.075315114021,3091.8298313636583
0.4158767361111112,777.9786925366361,777.860356558233,0.023805159649941638,0.2350917292424591,0.2589082707575409,0.35471956322035253,2184.894605980984,3099.410314759903
0.4194930555555556,778.0891836734221,777.9713607527652,0.024091066710161892,0.23519517083106403,0.258804829168936,0.3547195632203526,2184.7131856981146,3106.9680672512973
0.423109375,778.1998602650284,778.0825500934176,0.02437809534936298,0.23529901820856913,0.25870098179143086,0.3547195632203526,2184.531053725314,3114.5032616737926
0.42672569444444447,778.3107226027613,778.1939249009372,0.02466624643306005,0.23540327168811906,0.25859672831188096,0.3547195632203526,2184.3482095133763,3122.0160686950285
0.43034201388888893,778.4217709774432,778.305485492527,0.02495552084098954,0.23550793158800373,0.2584920684119963,0.35471956322035264,2184.1646525040705,3129.5066568526954
0.4339583333333334,778.5330056797665,778.4172321826208,0.025245919466979884,0.23561299823161155,0.2583870017683884,0.35471956322035264,2183.980382130224,3136.9751925920327
0.43757465277777785,778.644427000597,778.5291652835461,0.025537443218825336,0.23571847194738385,0.25828152805261617,0.35471956322035264,2183.795397815803,3144.421840302485
0.44119097222222226,778.7560352312335,778.6412851060961,0.025830093018162806,0.23582435306877012,0.25817564693122985,0.3547195632203527,2183.6096989759894,3151.8467623535385
0.44480729166666666,778.8678306636297,778.7535919600173,0.026123869800351533,0.23593064193418475,0.25806935806581527,0.3547195632203527,2183.423285017257,3159.2501191297565
0.4484236111111111,778.9798135905846,778.8660861544301,0.026418774514355394,0.2360373388869642,0.2579626611130358,0.3547195632203527,2183.236155337448,3166.63206906504
0.4520399305555556,779.0919843059054,778.9787679981886,0.02671480812262785,0.23614444427532558,0.2578555557246744,0.35471956322035275,2183.0483093258445,3173.992768676132
0.45565625000000004,779.2043431045454,779.0916378001887,0.02701197160099932,0.23625195845232572,0.2577480415476743,0.35471956322035275,2182.85974636324,3181.332372595384
0.4592725694444445,779.3168902827233,779.2046958696328,0.02731026593856692,0.23635988177582137,0.25764011822417865,0.35471956322035275,2182.6704658220106,3188.6510336028077
0.46288888888888896,779.4296261380241,779.3179425162572,0.02760969213758648,0.23646821460843018,0.25753178539156985,0.3547195632203528,2182.480467066181,3195.948902657424
0.4665052083333334,779.5425509694849,779.4313780505244,0.027910251213366728,0.23657695731749226,0.2574230426825077,0.3547195632203528,2182.2897494514955,3203.2261289279395
0.4701215277777779,779.6556650776687,779.545002783791,0.028211944194165586,0.2366861102750329,0.2573138897249671,0.35471956322035286,2182.098312325479,3210.482859822755
0.47373784722222234,779.7689687647263,779.6588170284491,0.028514772121088484,0.23679567385772549,0.2572043261422745,0.35471956322035286,2181.906155027507,3217.719241019331
0.47735416666666675,779.8824623344495,779.7728210980478,0.028818736047988666,0.23690564844685566,0.2570943515531443,0.35471956322035286,2181.713276888863,3224.9354164929273
0.48097048611111115,779.9961460923157,779.8870153073974,0.029123837041369366,0.23701603442828587,0.25698396557171416,0.3547195632203529,2181.5196772328063,3232.131528544729
0.4845868055555556,780.1100203455254,780.0013999726583,0.029430076180287843,0.23712683219242056,0.25687316780757946,0.3547195632203529,2181.325355374628,3239.3077178293765
0.48820312500000007,780.2240854030352,780.1159754114168,0.029737454556261173,0.2372380421341722,0.2567619578658278,0.354719563220353,2181.130310621714,3246.4641233819157
0.49181944444444453,780.3383415755835,780.2307419427495,0.030045973273173824,0.2373496646529278,0.2566503353470722,0.354719563220353,2180.9345422736023,3253.600882644182
0.495435763888889,780.4527891757141,780.3456998872789,0.030355633447186878,0.23746170015251605,0.25653829984748394,0.354719563220353,2180.7380496220408,3260.7181314906356
0.4990520833333334,780.5674285177943,780.4608495672201,0.030666436206648898,0.2375741490411751,0.2564258509588249,0.35471956322035303,2180.540831951044,3267.8160042536533
0.5026684027777779,780.6822599180313,780.5761913064207,0.030978382692008418,0.23768701173152088,0.25631298826847915,0.35471956322035303,2180.342888536948,3274.8946337483035
0.5062847222222223,780.7972836944849,780.6917254303954,0.0312914740557279,0.23780028864051594,0.25619971135948405,0.3547195632203531,2180.144218648467,3281.954151296607
0.5099010416666667,780.9125001670784,780.8074522663541,0.03160571146219936,0.23791398018943907,0.25608601981056095,0.3547195632203531,2179.9448215467432,3288.9946867513004
0.5135173611111111,781.0279096576074,780.9233721432266,0.031921096087661256,0.23802808680385498,0.255971913196145,0.3547195632203531,2179.744696485404,3296.0163685191137
0.5171336805555555,781.1435124897471,781.0394853916838,0.03223762912011704,0.2381426089135851,0.2558573910864149,0.35471956322035314,2179.543842710609,3303.019323583578
0.52075,781.2593089890578,781.1557923441544,0.03255531175925493,0.2382575469526783,0.2557424530473217,0.35471956322035314,2179.342259461106,3310.0036775273666
0.5243663194444446,781.37529948299,781.2722933348405,0.03287414521636914,0.23837290135938266,0.25562709864061733,0.3547195632203532,2179.139945968276,3316.969554554189
0.527982638888889,781.491484300888,781.3889886997292,0.0331941307142824,0.23848867257611714,0.25551132742388283,0.3547195632203532,2178.9369014561858,3323.917077510246
0.5315989583333334,781.6078637739921,781.5058787766039,0.033515269487269864,0.23860486104944434,0.25539513895055566,0.35471956322035325,2178.733125141635,3330.8463679052547
0.5352152777777778,781.7244382354414,781.6229639050526,0.03383756278098419,0.23872146723004314,0.2552785327699569,0.35471956322035325,2178.5286162342036,3337.757545933057
0.5388315972222222,781.8412080202751,781.7402444264752,0.0341610118523819,0.23883849157268228,0.2551615084273177,0.35471956322035325,2178.3233739362986,3344.650730491819
0.5424479166666667,781.9581734654334,781.8577206840902,0.034485617969651,0.238955934536194,0.25504406546380604,0.3547195632203533,2178.1173974432004,3351.526039203835
0.5460642361111112,782.0753349097589,781.9753930229388,0.03481138241213969,0.23907379658344832,0.2549262034165517,0.3547195632203533,2177.910685943108,3358.3835884349364
0.5496805555555556,782.1926926939956,782.0932617898902,0.035138306470286346,0.2391920781813277,0.2548079218186723,0.35471956322035336,2177.703238617183,3365.2234933135314
0.553296875,782.3102471607905,782.2113273336446,0.03546639144555056,0.23931077980070217,0.25468922019929785,0.35471956322035336,2177.4950546395935,3372.045867749266
0.5569131944444444,782.4279986546926,782.3295900047359,0.035795638650345324,0.2394299019164046,0.25457009808359543,0.3547195632203534,2177.2861331775566,3378.8508244513287
0.5605295138888888,782.5459475221528,782.4480501555347,0.03612604940797027,0.2395494450072067,0.2544505549927933,0.3547195632203534,2177.0764733913825,3385.638474946397
0.5641458333333333,782.664094111524,782.5667081402495,0.03645762505254601,0.2396694095557953,0.2543305904442047,0.3547195632203535,2176.8660744345143,3392.408929596247
0.5677621527777779,782.7824387730602,782.685564314929,0.03679036692894948,0.23978979604874875,0.25421020395125127,0.3547195632203535,2176.6549354535705,3399.1622976150206
0.5713784722222223,782.900981858916,782.8046190374632,0.037124276392750274,0.23991060497651415,0.2540893950234858,0.35471956322035353,2176.4430555883832,3405.898687086164
0.5749947916666667,783.0197237231467,782.9238726675843,0.03745935481014811,0.24003183683338453,0.25396816316661547,0.35471956322035353,2176.2304339720404,3412.6182049790496
0.5786111111111111,783.1386647217073,783.0433255668678,0.03779560355791105,0.24015349211747655,0.25384650788252344,0.3547195632203536,2176.0170697309245,3419.3209571652797
0.5822274305555555,783.2578052124521,783.1629780987334,0.03813302402331485,0.2402755713307086,0.2537244286692914,0.3547195632203536,2175.8029619847484,3426.0070484346875
0.58584375,783.3771455551345,783.2828306284455,0.03847161760408316,0.24039807497877913,0.25360192502122086,0.35471956322035364,2175.5881098465975,3432.6765825110347
0.5894600694444445,783.4966861114067,783.4028835231137,0.03881138570832861,0.2405210035711453,0.2534789964288547,0.35471956322035364,2175.3725124229636,3439.3296620674205
0.5930763888888889,783.6164272448191,783.5231371516938,0.03915232975449486,0.24064435762100211,0.2533556423789979,0.3547195632203537,2175.1561688137836,3445.9663887414026
0.5966927083333333,783.7363693208204,783.6435918849878,0.03949445117129949,0.24076813764526164,0.2532318623547384,0.3547195632203537,2174.9390781124744,3452.5868631498383
0.6003090277777777,783.8565127067573,783.7642480956445,0.039837751397677694,0.24089234416453273,0.2531076558354673,0.35471956322035375,2174.7212394059707,3459.1911849034555
0.6039253472222221,783.9768577718747,783.8851061581602,0.04018223188272687,0.2410169777031009,0.2529830222968991,0.35471956322035375,2174.502651774758,3465.779452621152
0.6075416666666666,784.0974048873157,784.0061664488793,0.04052789408565201,0.24114203878890866,0.25285796121109133,0.3547195632203538,2174.283314292907,3472.3517639440374
0.6111579861111112,784.2181544261222,784.1274293459945,0.040874739475711824,0.24126752795353593,0.2527324720464641,0.3547195632203538,2174.063226028112,3478.908215549221
0.6147743055555556,784.3391067632344,784.2488952295477,0.04122276953216576,0.24139344573218088,0.2526065542678191,0.35471956322035386,2173.842386041718,3485.4489031633434
0.618390625,784.4602622754926,784.3705644814306,0.04157198574422172,0.24151979266364115,0.25248020733635884,0.35471956322035386,2173.6207933887595,3491.9739215758723
0.6220069444444445,784.5816213416367,784.4924374853854,0.0419223896109845,0.24164656929029502,0.25235343070970495,0.3547195632203539,2173.3984471179897,3498.4833646521556
0.625623263888889,784.703184342308,784.6145146270056,0.04227398264140502,0.2417737761580831,0.2522262238419169,0.3547195632203539,2173.1753462719153,3504.977325346239
0.6292395833333334,784.8249516600495,784.7367962937369,0.04262676635423019,0.2419014138164902,0.25209858618350983,0.354719563220354,2172.9514898868256,3511.4558957134604
0.6328559027777778,784.9469236793077,784.8592828748783,0.04298074227795362,0.24202948281852754,0.25197051718147245,0.354719563220354,2172.7268769928264,3517.919166922816
0.6364722222222223,785.0691007864339,784.9819747615826,0.04333591195076685,0.24215798372071506,0.25184201627928493,0.35471956322035403,2172.501506613869,3524.3672292691135
0.6400885416666668,785.1914833696852,785.1048723468587,0.04369227692051134,0.24228691708306405,0.25171308291693595,0.35471956322035403,2172.2753777677817,3530.8001721849037
0.6437048611111112,785.3140718192274,785.2279760255715,0.044049838744631094,0.24241628346905997,0.25158371653094,0.3547195632203541,2172.0484894662995,3537.218084252209
0.6473211805555557,785.4368665271363,785.3512861944444,0.04440859899012596,0.24254608344564568,0.25145391655435434,0.35471956322035414,2171.820840715094,3543.6210532140467
0.6509375000000001,785.5598678874004,785.4748032520602,0.04476855923350552,0.2426763175832046,0.2513236824167954,0.35471956322035414,2171.5924305138024,3550.0091659857503
0.6545538194444445,785.6830762959233,785.5985275988629,0.04512972106074357,0.24280698645554435,0.25119301354445567,0.3547195632203542,2171.3632578560555,3556.382508666093
0.658170138888889,785.8064921505269,785.7224596371598,0.04549208606723331,0.2429380906398805,0.2510619093601195,0.3547195632203542,2171.133321729509,3562.7411665482236
0.6617864583333335,785.930115850954,785.8465997711228,0.04585565585774295,0.24306963071682056,0.25093036928317947,0.35471956322035425,2170.902621115868,3569.08522413041
0.6654027777777779,786.0539477988729,785.9709484067907,0.046220432046372065,0.243201607270348,0.250798392729652,0.3547195632203543,2170.671154990918,3575.414765126603
0.6690190972222223,786.1779883978799,786.0955059520722,0.04658641625650844,0.24333402088780695,0.250665979112193,0.3547195632203543,2170.438922324549,3581.729872476816
0.6726354166666667,786.3022380535048,786.2202728167468,0.046953610120785416,0.2434668721598865,0.2505331278401135,0.35471956322035436,2170.205922080785,3588.0306283573314
0.6762517361111111,786.426697173215,786.345249412469,0.04732201528103986,0.2436001616806056,0.2503998383193944,0.35471956322035436,2169.972153217811,3594.3171141907314
0.6798680555555556,786.5513661664205,786.4704361527698,0.047691633388270635,0.24373389004729804,0.250266109952702,0.3547195632203544,2169.737614687997,3600.589410655765
0.6834843750000001,786.6762454444798,786.5958334530604,0.04806246610259753,0.24386805786059756,0.25013194213940243,0.3547195632203545,2169.502305437926,3606.847597697039
0.6871006944444445,786.8013354207058,786.7214417306354,0.04843451509322078,0.2440026657244232,0.2499973342755768,0.3547195632203545,2169.266224408419,3613.091754534561
0.690717013888889,786.9266365103722,786.8472614046758,0.04880778203838105,0.2441377142459649,0.2498622857540351,0.35471956322035453,2169.02937053456,3619.321959673111
0.6943333333333334,787.0521491307215,786.9732928962532,0.04918226862531987,0.24427320403566907,0.24972679596433092,0.35471956322035453,2168.791742745722,3625.538290911463
0.6979496527777778,787.1778737009723,787.0995366283332,0.04955797655024056,0.24440913570722453,0.24959086429277547,0.3547195632203546,2168.5533399655915,3631.740825351454
0.7015659722222223,787.3038106423277,787.2259930257804,0.04993490751826968,0.24454550987754856,0.24945449012245144,0.35471956322035464,2168.314161112193,3637.929639406904
0.7051822916666668,787.4299603779851,787.3526625153621,0.050313063243418776,0.244682327166773,0.249317672833227,0.35471956322035464,2168.074205097912,3644.1048088123853
0.7087986111111112,787.5563233331463,787.4795455257539,0.050692445448546765,0.2448195881982307,0.2491804118017693,0.3547195632203547,2167.8334708295206,3650.2664086318546
0.7124149305555556,787.6828999350284,787.6066424875443,0.05107305586532259,0.24495729359844198,0.249042706401558,0.35471956322035475,2167.5919572082016,3656.4145132671392
0.7160312500000001,787.8096906128761,787.733953833241,0.05145489623418844,0.2450954439971014,0.2489045560028986,0.35471956322035475,2167.349663129569,3662.5491964662897
0.7196475694444445,787.9366957979746,787.8614799972764,0.05183796830432319,0.24523404002706434,0.24876595997293566,0.3547195632203548,2167.106587483694,3668.6705313317934
0.7232638888888889,788.063915923664,787.9892214160143,0.052222273833606475,0.24537308232433427,0.24862691767566575,0.35471956322035486,2166.8627291551265,3674.7785903286594
0.7268802083333334,788.1913514253552,788.1171785277567,0.05260781458858302,0.24551257152804956,0.24848742847195043,0.35471956322035486,2166.6180870229186,3680.873445292372
0.7304965277777778,788.3190027405461,788.2453517727515,0.05299459234442732,0.24565250828047097,0.24834749171952902,0.3547195632203549,2166.372659960646,3686.9551674367144
0.7341128472222223,788.4468703088411,788.3737415932004,0.05338260888490888,0.24579289322696887,0.24820710677303112,0.35471956322035497,2166.12644683643,3693.023827361476
0.7377291666666667,788.5749545719707,788.5023484332677,0.05377186600235764,0.24593372701601082,0.24806627298398917,0.354719563220355,2165.8794465129613,3699.079495060026
0.7413454861111111,788.7032559738135,788.6311727390893,0.05416236549762985,0.24607501029914924,0.24792498970085075,0.354719563220355,2165.6316578475185,3705.1222399267767
0.7449618055555556,788.8317749604203,788.7602149587832,0.05455410918007432,0.24621674373100913,0.24778325626899086,0.3547195632203551,2165.3830796919924,3711.1521307645253
0.7485781250000001,788.9605119800403,788.88947554246,0.05494709886749894,0.24635892796927605,0.24764107203072394,0.35471956322035514,2165.133710892906,3717.1692357916795
0.7521944444444445,789.0894674831501,789.0189549422347,0.055341336386137634,0.24650156367468404,0.24749843632531596,0.35471956322035514,2164.883550291436,3723.173622649374
0.7558107638888889,789.2186419224842,789.1486536122395,0.055736823570617613,0.2466446515110039,0.2473553484889961,0.3547195632203552,2164.632596723433,3729.1653584084715
0.7594270833333333,789.3480357530697,789.2785720086374,0.056133562263926934,0.2467881921450314,0.2472118078549686,0.35471956322035525,2164.3808490194415,3735.14450957646
0.7630434027777777,789.4776494322635,789.4087105896367,0.0565315543173824,0.2469321862465756,0.2470678137534244,0.3547195632203553,2164.1283060047217,3741.1111421042397
0.7666597222222222,789.6074834197932,789.5390698155071,0.05693080159059782,0.2470766344884475,0.2469233655115525,0.3547195632203553,2163.874966499269,3747.0653213928063
0.7702760416666667,789.7375381778012,789.6696501485974,0.05733130595145246,0.24722153754644852,0.2467784624535515,0.35471956322035536,2163.6208293178343,3753.0071122998343
0.7738923611111111,789.8678141708943,789.8004520533536,0.05773306927605996,0.24736689609935927,0.24663310390064075,0.3547195632203554,2163.3658932699423,3758.9365791461564
0.7775086805555556,789.9983118661969,789.93147599634,0.05813609344873746,0.24751271082892845,0.24648728917107154,0.35471956322035547,2163.110157159914,3764.853785722148
0.7811250000000001,790.1290317334094,790.0627224462606,0.05854038036197505,0.2476589824198617,0.2463410175801383,0.35471956322035547,2162.8536197868825,3770.758795294012
0.7847413194444445,790.2599742448728,790.1941918739834,0.05894593191640545,0.2478057115598107,0.24619428844018929,0.3547195632203555,2162.5962799448157,3776.651670609969
0.7883576388888889,790.3911398756383,790.3258847525666,0.05935275002077412,0.24795289893936234,0.24604710106063765,0.3547195632203556,2162.338136422532,3782.532473906358
0.7919739583333334,790.5225291035451,790.4578015572865,0.05976083659190954,0.24810054525202793,0.24589945474797206,0.35471956322035564,2162.0791880037223,3788.4012669136423
0.7955902777777778,790.6541424093053,790.5899427656686,0.060170193554693774,0.24824865119423256,0.24575134880576743,0.3547195632203557,2161.819433466966,3794.258110862327
0.7992065972222222,790.7859802765958,790.7223088575214,0.06058082284203345,0.2483972174653047,0.24560278253469534,0.3547195632203557,2161.5588715857507,3800.103066488791
0.8028229166666666,790.9180431921604,790.8549003149722,0.060992726394830846,0.24854624476746554,0.24545375523253446,0.35471956322035575,2161.2975011284916,3805.936194041029
0.806439236111111,791.0503316459228,790.9877176225078,0.06140590616195541,0.2486957338058189,0.24530426619418108,0.3547195632203558,2161.0353208585466,3811.757553284315
0.8100555555555555,791.1828461311082,791.1207612670172,0.06182036410021547,0.24884568528834092,0.2451543147116591,0.35471956322035586,2160.7723295342375,3817.5672035067764
0.813671875,791.3155871443789,791.2540317378396,0.06223610217433024,0.24899609992586977,0.24500390007413023,0.3547195632203559,2160.5085259088655,3823.365203524894
0.8172881944444444,791.4485551859832,791.3875295268157,0.06265312235690215,0.24914697843209593,0.24485302156790406,0.35471956322035597,2160.2439087307303,3829.151611688917
0.8209045138888889,791.5817507599177,791.5212551283443,0.06307142662838948,0.24929832152355205,0.24470167847644794,0.35471956322035597,2159.9784767431456,3834.9264858882043
0.8245208333333333,791.7151743741081,791.6552090394441,0.06349101697707922,0.24945012991960325,0.24454987008039675,0.354719563220356,2159.7122286844583,3840.689883556488
0.8281371527777777,791.8488265406058,791.7893917598212,0.06391189539906025,0.24960240434243738,0.24439759565756264,0.3547195632203561,2159.445163288065,3846.441861677062
0.8317534722222222,791.9827077758061,791.9238037919432,0.06433406389819689,0.24975514551705544,0.24424485448294456,0.35471956322035614,2159.177279282427,3852.1824767878993
0.8353697916666667,792.1168186006876,792.0584456411192,0.06475752448610264,0.24990835417126214,0.24409164582873788,0.3547195632203562,2158.90857539109,3857.9117849866943
0.8389861111111111,792.2511595410754,792.1933178155891,0.06518227918211437,0.25006203103565644,0.24393796896434355,0.35471956322035625,2158.639050332698,3863.6298419358404
0.8426024305555555,792.3857311279324,792.3284208266199,0.06560833001326682,0.25021617684362246,0.2437838231563775,0.3547195632203563,2158.36870282101,3869.336702867336
0.84621875,792.5205338976795,792.4637551886123,0.06603567901426732,0.2503707923313203,0.24362920766867968,0.35471956322035636,2158.097531564918,3875.0324225876234
0.8498350694444445,792.6555683925482,792.5993214192164,0.06646432822747105,0.250525878237677,0.243474121762323,0.3547195632203564,2157.82553526846,3880.7170554823624
0.8534513888888889,792.7908351609703,792.7351200394601,0.06689427970285647,0.2506814353043777,0.2433185646956223,0.3547195632203564,2157.552712630836,3886.3906555211433
0.8570677083333333,792.9263347580073,792.871151573888,0.06732553549800148,0.2508374642758571,0.24316253572414287,0.35471956322035647,2157.2790623464252,3892.0532762621337
0.8606840277777779,793.062067745824,793.0074165507162,0.0677580976780596,0.2509939658992908,0.24300603410070923,0.3547195632203565,2157.004583104799,3897.7049708566674
0.8643003472222224,793.1980346942114,793.1439155019998,0.06819196831573686,0.2511509409245867,0.24284905907541332,0.3547195632203566,2156.729273590737,3903.3457920537735
0.8679166666666668,793.3342361811641,793.2806489638186,0.06862714949126907,0.2513083901043772,0.2426916098956228,0.35471956322035664,2156.45313248424,3908.975792204647
0.8715329861111112,793.4706727935176,793.4176174764805,0.0690636432923996,0.2514663141940109,0.24253368580598908,0.3547195632203567,2156.1761584605456,3914.5950232670652
0.8751493055555556,793.607345127652,793.5548215847446,0.06950145181435775,0.2516247139515448,0.2423752860484552,0.35471956322035675,2155.8983501901407,3920.2035368097518
0.878765625,793.7442537902706,793.6922618380673,0.06994057715983766,0.25178359013773666,0.24221640986226337,0.3547195632203568,2155.6197063387763,3925.801384016683
0.8823819444444445,793.8813993992586,793.8299387908729,0.07038102143897776,0.2519429435160376,0.24205705648396242,0.35471956322035686,2155.3402255674782,3931.38861569135
0.885998263888889,794.0187825846342,793.9678530028498,0.07082278676934108,0.25210277485258503,0.241897225147415,0.3547195632203569,2155.0599065325628,3936.9652822609683
0.8896145833333334,794.1564039895982,794.1060050392787,0.0712658752758961,0.2522630849161956,0.2417369150838044,0.35471956322035697,2154.778747885646,3942.5314337806417
0.8932309027777778,794.2942642716968,794.2443954713922,0.07171028909099862,0.25242387447835873,0.24157612552164126,0.354719563220357,2154.4967482736574,3948.087119937482
0.8968472222222222,794.4323641041066,794.3830248767714,0.07215603035437426,0.2525851443132303,0.2414148556867697,0.3547195632203571,2154.2139063388486,3953.6323900546868
0.9004635416666666,794.5707041770569,794.5218938397832,0.07260310121310203,0.25274689519762655,0.24125310480237347,0.35471956322035714,2153.930220718806,3959.167293095575
0.9040798611111112,794.7092851994039,794.6610029520607,0.07305150382159893,0.25290912791101866,0.24109087208898133,0.3547195632203572,2153.6456900464605,3964.6918776675866
0.9076961805555557,794.8481079003734,794.8003528130347,0.07350124034160567,0.2530718432355276,0.2409281567644724,0.35471956322035725,2153.360312950094,3970.206192026244
0.9113125000000001,794.9871730314901,794.9399440305184,0.07395231294217357,0.2532350419559192,0.24076495804408077,0.3547195632203573,2153.0740880533504,3975.710284079084
0.9149288194444446,795.1264813687151,795.0797772213524,0.07440472379965296,0.2533987248596003,0.2406012751403997,0.35471956322035736,2152.787013975243,3981.2042013895584
0.9185451388888891,795.266033714813,795.2198530121167,0.07485847509768291,0.2535628927366146,0.2404371072633854,0.3547195632203574,2152.4990893301588,3986.6879911809056
0.9221614583333335,795.4058309019752,795.360172039917,0.07531356902718271,0.25372754637963985,0.24027245362036018,0.35471956322035747,2152.2103127278656,3992.16170034
0.9257777777777779,795.545873794727,795.5007349532514,0.07577000778634514,0.2538926865839854,0.2401073134160146,0.3547195632203575,2151.920682773516,3997.6253754211834
0.9293940972222223,795.6861632931501,795.6415424129693,0.07622779358063177,0.25405831414759045,0.23994168585240958,0.3547195632203576,2151.63019806765,4003.079062650074
0.9330104166666668,795.8267003364554,795.7825950933299,0.07668692862277035,0.25422442987102306,0.2397755701289769,0.3547195632203577,2151.3388572061967,4008.522807927368
0.9366267361111114,795.9674859069451,795.9238936831722,0.07714741513275479,0.25439103455748036,0.23960896544251964,0.35471956322035775,2151.046658780476,4013.95665683263
0.9402430555555558,796.1085210344064,796.0654388872088,0.07760925533784774,0.25455812901278907,0.23944187098721093,0.3547195632203578,2150.7536013771924,4019.3806546280816
0.9438593750000002,796.2498068009868,796.2072314274571,0.07807245147258617,0.254725714045408,0.239274285954592,0.35471956322035786,2150.459683578438,4024.7948462623904
0.9474756944444446,796.3913443466016,796.3492720448236,0.07853700577879029,0.2548937904664309,0.2391062095335691,0.3547195632203579,2150.1649039616814,4030.199276374467
0.951092013888889,796.5331348749357,796.4915615008553,0.07900292050557607,0.2550623590895912,0.2389376409104088,0.35471956322035797,2149.869261099762,4035.5939892972765
0.9547083333333335,796.6751796601039,796.634100579683,0.07947019790937189,0.2552314207312679,0.23876857926873207,0.354719563220358,2149.572753560879,4040.9790290616675
0.958324652777778,796.8174800540434,796.7768900901715,0.07993884025393952,0.25540097621049346,0.23859902378950656,0.3547195632203581,2149.275379908579,4046.3544394002306
0.9619409722222224,796.9600374947206,796.9199308683045,0.08040884981040033,0.25557102634896267,0.23842897365103732,0.3547195632203582,2148.9771387017377,4051.720263751195
0.9655572916666668,797.1028535152423,797.0632237798294,0.08088022885726691,0.2557415719710448,0.2382584280289552,0.35471956322035825,2148.6780284945416,4057.076545262366
0.9691736111111112,797.2459297539712,797.2067697231919,0.0813529796804808,0.2559126139037968,0.2380873860962032,0.3547195632203583,2148.378047836463,4062.423326795118
0.9727899305555556,797.3892679657582,797.3505696327941,0.0818271045734572,0.2560841529769796,0.23791584702302038,0.35471956322035836,2148.077195272231,4067.760650928457
0.9764062500000001,797.5328700344155,797.4946244826145,0.08230260583713721,0.25625619002307704,0.23774380997692293,0.3547195632203584,2147.7754693418005,4073.088559963154
0.9800225694444447,797.6767379865655,797.6389352902315,0.08277948578004855,0.2564287258773178,0.2375712741226822,0.3547195632203585,2147.4728685803116,4078.4070959259757
0.9836388888888891,797.8208740070204,797.7835031212982,0.08325774671837577,0.25660176137770074,0.23739823862229925,0.3547195632203586,2147.1693915180454,4083.7163005740153
0.9872552083333335,797.9652804558588,797.9283290945242,0.08373739097604103,0.25677529736502436,0.23722470263497566,0.35471956322035864,2146.8650366803745,4089.0162153991487
0.9908715277777779,798.1099598873858,798.0734143872245,0.08421842088479653,0.2569493346829199,0.2370506653170801,0.3547195632203587,2146.5598025877016,4094.306881632626
0.9944878472222223,798.2549150711828,798.2187602415049,0.08470083878433013,0.25712387417788984,0.23687612582211015,0.3547195632203588,2146.253687755395,4099.588340249823
0.9981041666666668,798.400149015473,798.3643679711637,0.08518464702238561,0.25729891669935134,0.23670108330064865,0.35471956322035886,2145.9466906937096,4104.860631975176
1.001720486111111,798.545664993052,798.5102389693983,0.08566984795489929,0.2574744630996855,0.2365255369003145,0.3547195632203589,2145.638809907704,4110.123797287311
1.0053368055555556,798.6914665700612,798.6563747174195,0.08615644394615513,0.2576505142342937,0.23634948576570627,0.35471956322035897,2145.3300438971382,4115.377876424419
1.0089531250000001,798.8375576379007,798.8027767940895,0.08664443736896006,0.25782707096166096,0.23617292903833903,0.3547195632203591,2145.020391156365,4120.622909389866
1.0125694444444446,798.983942448618,798.949446886718,0.08713383060484278,0.2580041341434278,0.2359958658565722,0.35471956322035914,2144.709850174201,4125.858935958124
1.0161857638888891,799.1306256541293,799.0963868031674,0.08762462604427805,0.25818170464447143,0.2358182953555286,0.3547195632203592,2144.3984194337895,4131.085995680996
1.0198020833333334,799.2776123496677,799.2435984854432,0.08811682608694017,0.2583597833329975,0.23564021666700252,0.3547195632203593,2144.0860974124325,4136.304127894235
1.0234184027777777,799.4249081218868,799.3910840249704,0.0886104331419893,0.2585383710806436,0.2354616289193564,0.35471956322035936,2143.772882581416,4141.513371724541
1.0270347222222223,799.5725191020798,799.5388456797884,0.08910544962839435,0.25871746876259627,0.23528253123740372,0.3547195632203594,2143.4587734057995,4146.713766097034
1.0306510416666668,799.7204520250112,799.6868858939312,0.08960187797529748,0.2588970772577226,0.23510292274227737,0.3547195632203595,2143.143768344189,4151.905349743213
1.0342673611111113,799.8687142938924,799.8352073193009,0.09009972062242554,0.2590771974487194,0.23492280255128065,0.3547195632203596,2142.827865848473,4157.088161209486
1.0378836805555558,800.0173140520654,799.9838128403936,0.09059898002055454,0.2592578302222808,0.2347421697777192,0.35471956322035963,2142.5110643635285,4162.262238866309
1.0415,800.1662602619925,800.1327056022889,0.09109965863203412,0.25943897646928865,0.23456102353071137,0.35471956322035975,2142.19336232689,4167.427620918015
1.0451163194444444,800.3155627921685,800.2818890423831,0.09160175893138021,0.25962063708502625,0.23437936291497374,0.3547195632203598,2141.8747581683706,4172.584345413392
1.048732638888889,800.4652325126003,800.4313669264212,0.09210528340594495,0.2598028129694213,0.23419718703057868,0.3547195632203599,2141.555250309639,4177.732450257098
1.0523489583333334,800.6152813995019,800.5811433894697,0.09261023455667453,0.25998550502731976,0.23401449497268023,0.35471956322035997,2141.2348371637377,4182.871973221988
1.055965277777778,800.7657226498508,800.7312229825751,0.09311661489896743,0.26016871416879644,0.23383128583120358,0.3547195632203601,2140.913517134538,4188.002951962431
1.0595815972222224,800.9165708064312,800.8816107259709,0.0936244269636469,0.2603524413095068,0.23364755869049322,0.35471956322036013,2140.5912886161245,4193.125424028742
1.0631979166666667,801.0678418939445,801.0323121698249,0.09413367329806376,0.26053668737108604,0.23346331262891393,0.3547195632203602,2140.2681499920945,4198.2394268827775
1.066814236111111,801.2195535666946,801.1833334636742,0.09464435646734883,0.26072145328160234,0.23327854671839765,0.3547195632203603,2139.9440996347616,4203.344997914853
1.0704305555555556,801.3717252682421,801.3346814358596,0.09515647905583587,0.2609067399760713,0.23309326002392872,0.35471956322036036,2139.6191359042555,4208.44217446203
1.074046875,801.5243784032732,801.4863636844597,0.09567004366868022,0.2610925483970419,0.23290745160295812,0.35471956322036047,2139.293257147494,4213.530993827938
1.0776631944444446,801.6775365217078,801.6383886814255,0.09618505293370194,0.26127887949526324,0.23272112050473676,0.3547195632203605,2138.9664616970117,4218.611493304179
1.081279513888889,801.8312255148008,801.7907658918311,0.09670150950348584,0.2614657342304444,0.2325342657695556,0.35471956322036063,2138.638747869631,4223.683710193476
1.0848958333333334,801.985473822631,801.9435059103743,0.09721941605777625,0.26165311357212073,0.2323468864278793,0.35471956322036075,2138.3101139649384,4228.747681834622
1.0885121527777777,802.1403126519215,802.0966206174749,0.09773877530620953,0.26184101850064256,0.23215898149935743,0.3547195632203608,2137.980558263554,4233.80344562934
1.0921284722222222,802.2957762025851,802.2501233575148,0.09825958999143286,0.2620294500083037,0.23197054999169633,0.3547195632203609,2137.6500790251507,4238.851039071118
1.0957447916666667,802.4519019007139,802.4040291419099,0.09878186289266427,0.2622184091006291,0.2317815908993709,0.35471956322036097,2137.318674486195,4243.890499776088
1.0993611111111112,802.6087306349369,802.55835487979,0.09930559682975605,0.2624078967978456,0.23159210320215443,0.3547195632203611,2136.98634285737,4248.921865515955
1.1029774305555557,802.7663069921359,802.7131196390245,0.09983079466782951,0.2625979141365581,0.2314020858634419,0.35471956322036113,2136.6530823206335,4253.94517425298
1.10659375,802.9246794874441,802.8683449401416,0.10035745932255652,0.26278846217166096,0.23121153782833906,0.35471956322036124,2136.318891025867,4258.960464176965
1.1102100694444443,803.0839007822617,803.0240550852736,0.1008855937661692,0.26297954197851203,0.23102045802148796,0.35471956322036136,2135.9837670870616,4263.9677737441125
1.1138263888888889,803.24402788272,803.1802775235458,0.10141520103428374,0.2631711546554017,0.2308288453445983,0.3547195632203614,2135.6477085779884,4268.9671417176005
1.1174427083333334,803.405122309662,803.3370432532431,0.1019462842336281,0.26336330132634866,0.23063669867365136,0.3547195632203615,2135.310713527296,4273.958607209598
1.1210590277777779,803.5672502298171,803.4943872595336,0.10247884655076339,0.26355598314425527,0.23044401685574475,0.35471956322036163,2134.972779912974,4278.942209724376
1.1246753472222224,803.7304825365262,803.6523489844346,0.103012891261885,0.2637492012944538,0.23025079870554624,0.3547195632203617,2134.633905656137,4283.917989202061
1.1282916666666667,803.8948948672091,803.8109728229905,0.10354842174378064,0.2639429569986709,0.23005704300132912,0.3547195632203618,2134.2940886140677,4288.885986062454
1.131907986111111,804.060567543894,803.9703086362701,0.10408544148600708,0.2641372515194333,0.2298627484805667,0.3547195632203619,2133.9533265724936,4293.846241248219
1.1355243055555555,804.2275854226936,804.1304122677835,0.10462395410432251,0.2643320861649276,0.22966791383507243,0.35471956322036197,2133.61161723706,4298.798796266611
1.139140625,804.3960376382871,804.2913460453667,0.10516396335537818,0.26452746229431556,0.22947253770568443,0.3547195632203621,2133.2689582240114,4303.743693228806
1.1427569444444445,804.5660172304179,804.45317924566,0.1057054731526277,0.26472338132349044,0.22927661867650956,0.3547195632203622,2132.925347050094,4308.680974885736
1.146373263888889,804.7376206413093,804.6159884933373,0.10624848758335544,0.26491984473123764,0.22908015526876238,0.3547195632203623,2132.58078112175,4313.610684659267
1.1499895833333333,804.9109470758729,804.7798580626504,0.10679301092665716,0.26511685406574015,0.22888314593425982,0.3547195632203624,2132.2352577237107,4318.532866667445
1.1536059027777776,805.0860977206889,804.9448800452087,0.10733904767212735,0.26531441095133984,0.22868558904866015,0.35471956322036247,2131.888774007135,4323.447565742524
1.1572222222222222,805.2631748229923,805.1111543458812,0.10788660253892057,0.26551251709543366,0.22848748290456636,0.3547195632203626,2131.5413269775177,4328.35482744045
1.1608385416666667,805.4422806371437,805.2787884689689,0.10843568049476444,0.26571117429535257,0.22828882570464742,0.3547195632203627,2131.1929134826223,4333.254698040583
1.1644548611111112,805.623516253089,805.4478970600097,0.10898628677441366,0.2659103844450385,0.22808961555496152,0.3547195632203628,2130.843530200773,4338.147224534519
1.1680711805555557,805.8069803286924,805.6186011752277,0.10953842689695567,0.26611014954130524,0.22788985045869478,0.3547195632203629,2130.4931736298718,4343.0324546031015
1.1716875,805.9927677550937,805.791027260907,0.11009210668131747,0.266310471689449,0.227689528310551,0.354719563220363,2130.1418400775606,4347.910436580935
1.1753038194444443,806.1809682907844,805.9653058386933,0.11064733225928843,0.2665113531079601,0.22748864689203993,0.35471956322036313,2129.789525652956,4352.781219408091
1.1789201388888888,806.371665205304,806.1415699093192,0.11120411008537126,0.26671279613208687,0.2272872038679131,0.3547195632203632,2129.4362262603995,4357.644852569005
1.1825364583333333,806.5649339767511,806.3199531054053,0.11176244694281205,0.26691480321601774,0.22708519678398228,0.3547195632203633,2129.081937595631,4362.501386019051
1.1861527777777778,806.7608410882139,806.5005876422877,0.11232234994523883,0.2671173769334735,0.2268826230665265,0.3547195632203634,2128.7266551447483,4367.350870099648
1.1897690972222223,806.959442966469,806.6836021324959,0.11288382653345964,0.2673205199765493,0.22667948002345067,0.3547195632203635,2128.37037418624,4372.193355443205
1.1933854166666666,807.1607851018508,806.8691193428065,0.11344688446712804,0.26752423515269913,0.2264757648473009,0.35471956322036363,2128.013089796273,4377.0288928695845
1.197001736111111,807.3649013812463,807.057253981167,0.11401153181116887,0.26772852537982433,0.22627147462017566,0.35471956322036374,2127.6547968573072,4381.857533276079
1.2006180555555555,807.5718136572218,807.2481106031956,0.11457777691705746,0.2679333936795009,0.22606660632049908,0.35471956322036385,2127.2954900699733,4386.679327523146
1.204234375,807.7815315659668,807.4417817239582,0.11514562839924755,0.26813884316845066,0.22586115683154934,0.35471956322036396,2126.9351639680317,4391.494326318279
1.2078506944444445,807.9940525958576,807.6383462106362,0.11571509510723284,0.26834487704843324,0.22565512295156678,0.35471956322036413,2126.573812936099,4396.302580100436
1.211467013888889,808.2093623977931,807.8378680164607,0.11628618609388981,0.26855149859479244,0.22544850140520756,0.35471956322036424,2126.211431229737,4401.1041389273905
1.2150833333333335,808.4274353187972,808.0403952973845,0.11685891058087639,0.26875871114393746,0.22524128885606254,0.35471956322036435,2125.848012997409,4405.899052368188
1.218699652777778,808.6482351323293,808.2459599321944,0.11743327792194344,0.26896651808006894,0.22503348191993106,0.35471956322036446,2125.4835523037586,4410.687369402658
1.2223159722222225,808.8717159327139,808.4545774459428,0.11800929756505182,0.2691749228214728,0.22482507717852718,0.3547195632203646,2125.1180431536504,4415.469138329641
1.225932291666667,809.0978231572922,808.6662473173936,0.11858697901417659,0.26938392880670103,0.224616071193299,0.3547195632203647,2124.7514795164043,4420.244406685194
1.2295486111111114,809.3264946983367,808.8809536349384,0.11916633179162767,0.26959353948093906,0.22440646051906094,0.3547195632203648,2124.3838553497067,4425.013221171723
1.2331649305555556,809.5576620672373,809.0986660530239,0.1197473654016296,0.26980375828282915,0.22419624171717084,0.35471956322036496,2124.01516462272,4429.775627598569
1.2367812500000002,809.7912515756932,809.3193409929384,0.12033008929578853,0.27001458863197614,0.22398541136802388,0.3547195632203651,2123.6454013379953,4434.5316708342725
1.2403975694444447,810.0271855022071,809.5429230277948,0.12091451284094554,0.2702260339173166,0.2237739660826834,0.3547195632203652,2123.2745595518695,4439.281394770364
1.2440138888888892,810.2653832166764,809.7693463913391,0.12150064528977753,0.2704380974864825,0.22356190251351749,0.35471956322036535,2122.902633393124,4444.024842296312
1.2476302083333337,810.5057622408841,809.9985365531744,0.12208849575436848,0.27065078263623904,0.22334921736376093,0.35471956322036546,2122.5296170797496,4448.76205528499
1.251246527777778,810.7482392278614,810.2304118083745,0.1226780731828435,0.2708640926040309,0.22313590739596914,0.3547195632203656,2122.155504933778,4453.493074587858
1.2548628472222223,810.9927308481019,810.4648848364723,0.12326938633903857,0.27107803056062646,0.22292196943937354,0.35471956322036574,2121.7802913941796,4458.217940038947
1.2584791666666668,811.2391545752531,810.701864192726,0.12386244378507308,0.2712925996038131,0.22270740039618694,0.35471956322036585,2121.403971027923,4462.93669046662
1.2620954861111113,811.4874293680064,810.9412557027345,0.12445725386660456,0.27150780275306163,0.22249219724693833,0.354719563220366,2121.026538539331,4467.649363712092
1.2657118055555558,811.7374762483923,811.1829637394052,0.1250538247004712,0.2717236429450561,0.22227635705494395,0.35471956322036613,2120.647988777921,4472.355996653637
1.2693281250000004,811.9892187795137,811.4268923685852,0.1256521641643712,0.2719401230299589,0.22205987697004112,0.3547195632203663,2120.268316744957,4477.056625235497
1.2729444444444447,812.2425834479276,811.6729463561082,0.12625227988818352,0.27215724576827144,0.22184275423172858,0.3547195632203664,2119.8875175989524,4481.751284500512
1.276560763888889,812.4974999574745,811.9210320344708,0.1268541792465034,0.2723750138281329,0.22162498617186713,0.3547195632203666,2119.5055866604116,4486.440008625577
1.2801770833333335,812.7539014423941,812.1710580317664,0.12745786935194167,0.27259342978289614,0.22140657021710386,0.3547195632203667,2119.122519416078,4491.122830959118
1.283793402777778,813.0117246081551,812.4229358689316,0.12806335704872052,0.2728124961088108,0.2211875038911892,0.35471956322036685,2118.738311522999,4495.799784059854
1.2874097222222225,813.2709098086285,812.6765804338538,0.12867064890608637,0.27303221518263965,0.22096778481736037,0.354719563220367,2118.3529588127067,4500.470899736198
1.291026041666667,813.5314010681368,812.9319103425672,0.12927975121104673,0.2732525892790311,0.2207474107209689,0.35471956322036713,2117.9664572958245,4505.136209085756
1.2946423611111113,813.7931460565727,813.1888481987511,0.12989066995992707,0.2734736205674645,0.22052637943253553,0.3547195632203673,2117.578803167428,4509.795742534434
1.2982586805555556,814.0560960252885,813.4473207631496,0.13050341084822745,0.27369531110857986,0.22030468889142013,0.35471956322036746,2117.1899928134776,4514.449529874782
1.3018750000000001,814.3202057108361,813.7072590444936,0.13111797925823748,0.27391766284969754,0.22008233715030248,0.35471956322036763,2116.80002281868,4519.097600303239
1.3054913194444446,814.585433212959,813.9685983231128,0.13173438024384085,0.2741406776193198,0.21985932238068018,0.35471956322036774,2116.4088899761296,4523.739982456041
1.3091076388888891,814.8517398525208,814.2312781177908,0.1323526185119039,0.2743643571203979,0.2196356428796021,0.3547195632203679,2116.016591299118,4528.376704443576
1.3127239583333337,815.119090014344,814.4952421056071,0.1329726983995955,0.27458870292212567,0.21941129707787435,0.3547195632203681,2115.623124035525,4533.007793883079
1.316340277777778,815.3874509792237,814.7604380035998,0.133594623846926,0.2748137164500046,0.21918628354999542,0.35471956322036824,2115.228485685246,4537.633277929517
1.3199565972222222,815.6567927487253,815.0268174201259,0.13421839836372065,0.27503939897389457,0.21896060102610546,0.3547195632203684,2114.8326740211464,4542.2531833046505
1.3235729166666668,815.9270878657439,815.2943356828256,0.13484402499015166,0.27526575159373423,0.21873424840626576,0.35471956322036857,2114.4356871141063,4546.867536324205
1.3271892361111113,816.198311233232,815.562951649154,0.13547150624984683,0.27549277522257587,0.21850722477742415,0.35471956322036874,2114.0375233627756,4551.47636292316
1.3308055555555558,816.4704399329725,815.8326275045399,0.1361008440944651,0.2757204705665324,0.21827952943346754,0.3547195632203689,2113.6381815287436,4556.079688679171
1.3344218750000003,816.7434530458042,816.1033285523846,0.1367320398384765,0.27594883810118115,0.21805116189881882,0.35471956322036907,2113.237660777922,4560.677538834133
1.3380381944444446,817.0173314742723,816.3750229993339,0.13736509408270878,0.27617787804390237,0.21782212195609763,0.35471956322036924,2112.8359607290604,4565.269938313947
1.341654513888889,817.2920577682974,816.6476817385438,0.13800000662501605,0.27640759032155937,0.21759240967844065,0.35471956322036946,2112.433081510429,4569.856911746517
1.3452708333333334,817.5676159541104,816.9212781330156,0.13863677635618527,0.2766379745328373,0.21736202546716274,0.3547195632203696,2112.029023825871,4574.438483478023
1.3525034722222224,818.1211704872272,817.4711884111169,0.1399158776654168,0.2771007552396569,0.2168992447603431,0.35471956322036996,2111.2173792265357,4583.585517899662
1.3597361111111113,818.6778904911614,818.0245820130153,0.14120236589015328,0.27756620854320824,0.21643379145679176,0.35471956322037035,2110.401047312731,4592.711231229104
1.36696875,819.237684502403,818.5813131780328,0.14249618436524988,0.2780343139419598,0.21596568605804017,0.35471956322037074,2109.580064040919,4601.815809377406
1.374201388888889,819.8004689797759,819.1412557000201,0.14379724431724172,0.27850503931754345,0.21549496068245658,0.3547195632203711,2108.754485741668,4610.899434758728
1.381434027777778,820.366162946191,819.7042965075972,0.14510541481208303,0.27897833729783156,0.21502166270216844,0.3547195632203715,2107.924395498241,4619.962286434314
1.3850503472222222,820.6500749769568,819.9869454216026,0.1457621108790177,0.27921593088625835,0.21478406911374168,0.35471956322037174,2107.5076936996543,4624.485977184947
1.3886666666666667,820.934682222654,820.2703291314587,0.14642050945857057,0.2794541404462169,0.21454585955378308,0.35471956322037196,2107.089911583846,4629.004540155349
1.3922829861111112,821.2199726006197,820.5544342336829,0.1470805757122455,0.27969295337308897,0.21430704662691105,0.3547195632203722,2106.6710712573354,4633.517996786634
1.3958993055555557,821.5059329641368,820.8392468438684,0.14774226885686842,0.279932354911463,0.214067645088537,0.3547195632203724,2106.2511985987944,4638.026368298366
1.3995156250000003,821.7925488351824,821.1247523391867,0.148405541296938,0.2801723278412177,0.21382767215878232,0.35471956322037257,2105.8303238096087,4642.529675679573
1.4031319444444446,822.0798041099678,821.4109350810648,0.1490703376362176,0.28041285211991435,0.21358714788008565,0.3547195632203728,2105.408482041064,4647.02793967736
1.4067482638888889,822.367680733182,821.6977781143268,0.14973659355451824,0.28065390447641547,0.21334609552358455,0.354719563220373,2104.9857141070775,4651.521180782896
1.4103645833333334,822.6561583366441,821.9852628388511,0.15040423453497154,0.28089545795041004,0.21310454204958998,0.35471956322037324,2104.562067291795,4656.009419214492
1.4139809027777779,822.9452138379511,822.273368649624,0.15107317442681195,0.2811374813724263,0.21286251862757372,0.3547195632203735,2104.1375962615693,4660.492674897481
1.4175972222222224,823.2348209947088,822.5620725409658,0.15174331382897444,0.2813799387790149,0.2126200612209851,0.35471956322037373,2103.7123640906375,4664.970967440563
1.421213541666667,823.5249499101222,822.8513486707376,0.15241453828090692,0.28162278875818236,0.21237721124181766,0.35471956322037396,2103.286443409124,4669.444316108215
1.4248298611111112,823.8155664861652,823.1411678805405,0.15308671624921777,0.2818659837209569,0.21213401627904313,0.3547195632203742,2102.8599176806033,4673.91273978881
1.4284461805555557,824.106631821354,823.431497168377,0.15375969690251115,0.282109469096321,0.211890530903679,0.3547195632203744,2102.432882614061,4678.376256957963
1.4320625000000002,824.3981015514137,823.722299111033,0.15443330767248392,0.28235318244881263,0.21164681755118736,0.3547195632203747,2102.00544771148,4682.834885636704
1.4356788194444448,824.6899251330049,824.0135312346802,0.1551073516076116,0.28259705252108486,0.2114029474789151,0.3547195632203749,2101.577737947044,4687.288643344002
1.4392951388888893,824.9820450733145,824.3051453339932,0.155781604537152,0.2828409982078384,0.21115900179216157,0.3547195632203752,2101.149895566697,4691.737547043223
1.4429114583333336,825.274396111872,824.5970867425854,0.15645581207837495,0.28308492747303293,0.21091507252696703,0.3547195632203754,2100.722081987182,4696.18161308213
1.446527777777778,825.5669043656038,824.889293560912,0.15712968653947915,0.28332873622935795,0.21067126377064205,0.3547195632203757,2100.294479761277,4700.620857126129
1.4501440972222226,825.859486454003,825.1816958521148,0.15780290379501974,0.2835723072077579,0.2104276927922421,0.3547195632203759,2099.867294560469,4705.055294084557
1.453760416666667,826.1520486284438,825.4742148216767,0.1584751002399738,0.2838155088554087,0.2101844911445913,0.3547195632203762,2099.4407571077263,4709.484938030027
1.4573767361111116,826.4444859380636,825.7667620032555,0.15914586996241803,0.2840581943127884,0.20994180568721157,0.35471956322037645,2099.015124971562,4713.909802111047
1.460993055555556,826.7366814740443,826.0592384805745,0.15981476231199446,0.28430020053394467,0.20969979946605533,0.35471956322037673,2098.5906841089404,4718.329898458487
1.4646093750000002,827.0285057440693,826.3515341835231,0.16048128007961399,0.28454134762790867,0.20945865237209135,0.35471956322037695,2098.1677500203386,4722.745238086827
1.4682256944444445,827.3198162384198,826.6435273051687,0.16114487853954215,0.28478143851212046,0.20921856148787957,0.35471956322037723,2097.7466683575803,4727.155830791607
1.4718420138888888,827.6104572574151,826.9350838944399,0.16180496563292524,0.28502025897882904,0.20897974102117098,0.3547195632203775,2097.327814807382,4731.561685045079
1.4754583333333333,827.9002600751555,827.2260576857338,0.16246090358525098,0.28525757828029186,0.20874242171970814,0.3547195632203778,2096.9115940650045,4735.962807892611
1.4790746527777778,828.1890435148965,827.5162902302757,0.16311201224141475,0.2854931503354067,0.20850684966459335,0.3547195632203781,2096.498437718012,4740.359204853037
1.4826909722222223,828.4766150049282,827.80561139316,0.16375757436306784,0.2857267156462998,0.2082732843537002,0.3547195632203784,2096.088800884875,4744.750879826755
1.4863072916666669,828.7627721687483,828.0938402731005,0.16439684305719343,0.2859580039859957,0.20804199601400433,0.3547195632203787,2095.6831575012225,4749.1378350158075
1.4899236111111112,829.047304978543,828.3807865877737,0.16502905138921453,0.2861867378764532,0.2078132621235468,0.35471956322037895,2095.2819942199126,4753.520070860554
1.4935399305555557,829.3299984666102,828.6662525457217,0.16565342408077166,0.28641263682083873,0.2075873631791613,0.3547195632203793,2094.88580298829,4757.89758599755
1.4971562500000002,829.6106359471208,828.9500351965601,0.16626919101128626,0.28663542218841115,0.20736457781158885,0.35471956322037956,2094.495072480867,4762.270377243014
1.4995671296296298,829.7964791209113,829.1381870710472,0.16667454959233402,0.2867820815103106,0.20721791848968943,0.3547195632203798,2094.2378550886815,4765.182944630907
1.5019780092592594,829.9812505829577,829.3254387541931,0.1670755351334699,0.2869271586600343,0.20707284133996567,0.35471956322037995,2093.983412577736,4768.0934084124265
1.504388888888889,830.1648896561005,829.5117300521023,0.1674719425677341,0.28707057944405917,0.20692942055594082,0.3547195632203802,2093.7318750718055,4771.0017663312765
1.5067997685185184,830.3473378738712,829.6970018182462,0.16786357789125933,0.2872122736715049,0.20678772632849507,0.3547195632203804,2093.4833656746578,4773.908015804365
1.5092106481481482,830.5285394941503,829.8811964143938,0.16825026004882607,0.2873521758363309,0.20664782416366914,0.3547195632203806,2093.237999273589,4776.81215393717
1.5116215277777778,830.7084419856221,830.0642581661707,0.16863182266137397,0.28749022574235183,0.20650977425764816,0.35471956322038084,2092.9958814432443,4779.714177541832
1.5140324074074074,830.8869964754308,830.2461338035577,0.16900811555084191,0.28762636905492783,0.2063736309450722,0.354719563220381,2092.7571074780385,4782.614083157794
1.5164432870370372,831.0641581475876,830.4267728769229,0.16937900602419736,0.28776055776552734,0.20623944223447266,0.35471956322038123,2092.5217615773886,4785.511867074702
1.5188541666666666,831.2398865833196,830.6061281398707,0.16974437988687835,0.28789275055839253,0.2061072494416075,0.35471956322038145,2092.289916202638,4788.407525357265
1.5212650462962962,831.4141460365587,830.7841558912249,0.17010414216555092,0.2880229130720334,0.20597708692796657,0.3547195632203817,2092.0616316184364,4791.301053871703
1.523675925925926,831.5869056400301,830.9608162698004,0.17045821753046192,0.28815101805203636,0.20584898194796367,0.3547195632203819,2091.836955624742,4794.192448313418
1.5260868055555556,831.7581395397739,831.136073497159,0.17080655041812304,0.2882770453954506,0.2057229546045494,0.3547195632203821,2091.615923478969,4797.081704235456
1.5284976851851855,831.9278269582833,831.3098960652162,0.1711491048649836,0.28840098209061155,0.20559901790938845,0.35471956322038234,2091.398558001531,4799.968817077372
1.5309085648148149,832.0959521886156,831.482256867252,0.17148586407149685,0.28852282205941876,0.2054771779405812,0.35471956322038256,2091.184869852461,4802.853782194109
1.5333194444444447,832.2625045237644,831.6531332725236,0.17181682972331858,0.28864256591174503,0.205357434088255,0.3547195632203828,2090.974857962138,4805.736594884493
1.5357303240740743,832.4274781271432,831.8225071461691,0.17214202110182497,0.2887602206236201,0.2052397793763799,0.354719563220383,2090.768510095702,4808.617250419022
1.538141203703704,832.5908718512228,831.9903648174031,0.1724614740197574,0.28887579915214573,0.2051242008478543,0.3547195632203832,2090.5658035284346,4811.495744066634
1.5405520833333337,832.7526890121349,832.1566970000758,0.17277523961949953,0.2889893200007104,0.2050106799992896,0.3547195632203835,2090.366705808301,4814.372071120204
1.542962962962963,832.9129371284434,832.3214986704817,0.1730833830714896,0.28910080674807315,0.20489919325192688,0.3547195632203837,2090.1711755818656,4817.2462269205325
1.545373842592593,833.0716276323147,832.4847689078688,0.17338598220878892,0.28921028755434824,0.20478971244565178,0.35471956322038395,2089.9791634607145,4820.118206878696
1.5477847222222225,833.2287755610442,832.6465107034082,0.17368312613115272,0.28931779465595625,0.20468220534404377,0.35471956322038417,2089.7906129072353,4822.988006496594
1.5501956018518521,833.3843992363928,832.8067307434787,0.17397491380845057,0.28942336386033934,0.20457663613966065,0.3547195632203844,2089.6054611208033,4825.855621385657
1.552606481481482,833.5385199384812,832.9654391730144,0.17426145270914487,0.28952703404974295,0.20447296595025707,0.35471956322038467,2089.423639908074,4828.721047283657
1.5550173611111113,833.6911615801965,833.1226493444073,0.17454285747525372,0.28962884670181527,0.20437115329818473,0.3547195632203849,2089.245076523774,4831.584280069608
1.5586336805555558,833.9174087292519,833.3556917641383,0.17495560315579803,0.2897781786870147,0.2042218213129853,0.3547195632203853,2088.983171700368,4835.875008531226
1.5622500000000001,834.1404841160073,833.5854664497987,0.17535749503870887,0.28992358375250554,0.20407641624749445,0.3547195632203856,2088.728154076723,4840.1607809253
1.5658663194444447,834.3604923165965,833.8120510154465,0.1757489746244655,0.29006522163380083,0.20393477836619917,0.354719563220386,2088.479743501864,4844.4415854778645
1.5694826388888892,834.5775438020922,834.0355326879386,0.17613049213611098,0.2902032552222498,0.20379674477775017,0.3547195632203864,2088.2376542899747,4848.717411371188
1.5730989583333335,834.7917531156667,834.256006446124,0.17650250045385715,0.29033784837056925,0.20366215162943072,0.3547195632203868,2088.001599069151,4852.988248778417
1.576715277777778,835.0032372707691,834.4735732882151,0.1768654500737413,0.2904691640688782,0.20353083593112184,0.3547195632203871,2087.7712919803507,4857.254088883852
1.5803315972222225,835.212114368881,834.6883386484127,0.17721978501865998,0.29059736296530375,0.20340263703469627,0.3547195632203875,2087.5464512720164,4861.51492389079
1.583947916666667,835.4185024276111,834.9004109743331,0.17756593960896583,0.29072260219757884,0.20327739780242116,0.3547195632203879,2087.3268013492707,4865.770747018831
1.5875642361111115,835.6225184046962,835.1099004690795,0.17790433598973115,0.2908450344984022,0.20315496550159778,0.35471956322038833,2087.1120743429733,4870.021552492411
1.5911805555555558,835.8242774004287,835.3169179958568,0.17823538231004296,0.29096480753670484,0.20303519246329516,0.3547195632203887,2086.902011265036,4874.267335522173
1.5947968750000001,836.0238920195309,835.5215741386069,0.17855947145328158,0.291082063458263,0.202917936541737,0.3547195632203891,2086.696362814116,4878.5080922806355
1.5984131944444444,836.2214718732954,835.7239784091136,0.17887698022500462,0.29119693859187323,0.20280306140812676,0.3547195632203895,2086.4948898909392,4882.743819873419
1.6020295138888887,836.4171232033254,835.9242385890442,0.17918826891413187,0.29130956329058877,0.20269043670941123,0.35471956322038994,2086.297363876744,4886.97451630715
1.6056458333333332,836.6109486094074,836.1224601943762,0.17949368115374267,0.29142006188135555,0.20257993811864444,0.35471956322039033,2086.103566721615,4891.2001804549955
1.6092621527777777,836.8030468653889,836.3187460492288,0.17979354401753275,0.29152855269991057,0.20247144730008942,0.3547195632203907,2085.913290883275,4895.420812020614
1.6128784722222222,836.993512808637,836.5131959563026,0.18008816829819185,0.2916351481914992,0.20236485180850078,0.35471956322039117,2085.7263391504416,4899.636411501209
1.6164947916666668,837.1824372901993,836.7059064515844,0.18037784892244468,0.2917399550610378,0.2022600449389622,0.3547195632203916,2085.5425243794693,4903.846980150228
1.620111111111111,837.3699071744547,836.8969706317506,0.18066286546572796,0.29184307445932434,0.20215692554067566,0.354719563220392,2085.361669167761,4908.0525199401545
1.6237274305555556,837.5560053785018,837.0864780435701,0.1809434827361789,0.29194460219432655,0.20205539780567344,0.35471956322039244,2085.1836054832056,4912.253033525765
1.62734375,837.7408109429497,837.2745146255937,0.1812199514036708,0.29204462895876776,0.20195537104123226,0.3547195632203929,2085.008174265025,4916.448524208113
1.6309600694444444,837.9243991270039,837.461162693405,0.18149250865451985,0.29214324056700075,0.20185675943299924,0.35471956322039333,2084.8352250083362,4920.6389958994705
1.634576388888889,838.106841521889,837.6465009606998,0.18176137885681765,0.2922405181957262,0.2017594818042738,0.3547195632203938,2084.6646153419697,4924.824453089393
1.6381927083333334,838.2882061776063,837.8306045893961,0.18202677422467564,0.292336538624317,0.20166346137568297,0.3547195632203942,2084.4962106069765,4929.004900812006
1.6418090277777777,838.4685577388925,838.0135452628623,0.1822888954725598,0.2924313744715578,0.20156862552844215,0.35471956322039466,2084.3298834414263,4933.180344614615
1.645425347222222,838.647957586974,838.1953912771593,0.18254793245311676,0.2925250944264112,0.20147490557358877,0.3547195632203951,2084.165513375678,4937.35079052767
1.6490416666666665,838.8264639843835,838.3762076459545,0.18280406477394004,0.29261776347116475,0.20138223652883525,0.35471956322039555,2084.002986441016,4941.516245036114
1.652657986111111,839.0041322205708,838.5560562153883,0.18305746238981688,0.2927094430957066,0.20129055690429334,0.354719563220396,2083.8421947938446,4945.676715052115
1.6562743055555555,839.1810147565876,838.7349957858131,0.18330828616860795,0.292800191502262,0.20119980849773803,0.3547195632203965,2083.683036356611,4949.83220788917
1.659890625,839.3571613674214,838.9130822377983,0.18355668842938866,0.2928900638000929,0.2011099361999071,0.35471956322039694,2083.5254144763344,4953.98273123756
1.6635069444444446,839.5326192809517,839.0903686602893,0.18380281345255098,0.2929791121900543,0.20102088780994573,0.35471956322039744,2083.3692376009226,4958.128293141109
1.667123263888889,839.7074333126877,839.2669054791604,0.18404679796171264,0.29306738613894906,0.20093261386105093,0.3547195632203979,2083.214418973381,4962.268901975212
1.6707395833333336,839.8816459957676,839.4427405847919,0.1842887715781696,0.2931549325439499,0.20084506745605007,0.3547195632203984,2083.0608763434407,4966.404566426096
1.6743559027777781,840.0552977057598,839.6179194575311,0.18452885724832896,0.2932417958872451,0.20075820411275488,0.3547195632203988,2082.9085316963387,4970.53529547123
1.6779722222222224,840.2284267800637,839.7924852901995,0.18476717164531964,0.29332801838134165,0.20067198161865835,0.3547195632203993,2082.757310997974,4974.661098360873
1.6815885416666667,840.4010696317437,839.9664791069705,0.18500382554570727,0.29341364010536153,0.2005863598946385,0.3547195632203998,2082.607143955868,4978.7819846006805
1.6852048611111112,840.5732608577554,840.1399398781374,0.18523892418248972,0.2934986991327558,0.20050130086724421,0.3547195632204003,2082.457963795174,4982.897963935315
1.6888211805555557,840.745033341636,840.312904630448,0.1854725675757724,0.2935832316509435,0.2004167683490565,0.3547195632204008,2082.309707048848,4987.009046333023
1.6924375,840.9164183507058,840.4854085527668,0.18570485084214555,0.29366727207324483,0.2003327279267552,0.3547195632204013,2082.162313361337,4991.115241971113
1.6960538194444446,841.0874456279298,840.6574850969477,0.1859358644840644,0.2937508531435791,0.20024914685642084,0.3547195632204018,2082.0157253049547,4995.21656122229
1.699670138888889,841.2581434786238,840.8291660738782,0.1861656946605151,0.2938340060343925,0.20016599396560747,0.3547195632204023,2081.869888208132,4999.313014641793
1.7032864583333334,841.4285388521795,841.0004817447102,0.18639442344005272,0.293916760438207,0.20008323956179297,0.3547195632204029,2081.7247499948535,5003.404612955298
1.7069027777777779,841.5986574190047,841.1714609073337,0.18662212903728226,0.29399914465318017,0.20000085534681986,0.3547195632204034,2081.5802610346,5007.491367047523
1.7105190972222224,841.7685236429415,841.3421309782284,0.1868488860340866,0.29408118566314506,0.19991881433685493,0.3547195632204039,2081.4363740019708,5011.573287951521
1.714135416666667,841.9381608493279,841.5125180697967,0.18707476558633296,0.2941629092123977,0.1998370907876023,0.35471956322040443,2081.293043745518,5015.650386838583
1.7177517361111114,842.107591288971,841.6826470633599,0.18729983561725136,0.29424433987566107,0.19975566012433896,0.354719563220405,2081.150227165042,5019.722675008749
1.7213680555555557,842.2768361982246,841.8525416779726,0.18752416099824962,0.2943255011235044,0.19967449887649555,0.3547195632204055,2081.0078830968537,5023.79016388187
1.724984375,842.4459158554066,842.0222245352478,0.18774780371810595,0.29440641538355766,0.19959358461644236,0.35471956322040604,2080.8659722064167,5027.852864989183
1.7286006944444445,842.6148496337624,842.1917172203777,0.1879708230413151,0.29448710409780077,0.19951289590219926,0.3547195632204066,2080.7244568878696,5031.910789965386
1.732217013888889,842.7836560511819,842.3610403395392,0.1881932756563447,0.29456758777620345,0.19943241222379657,0.35471956322040715,2080.5833011699497,5035.963950541165
1.7358333333333336,842.9523528168513,842.5302135738693,0.18841521581443652,0.2946478860469436,0.19935211395305638,0.3547195632204077,2080.442470627919,5040.012358536151
1.739449652777778,843.1209568750576,842.6992557302066,0.18863669545973702,0.29472801770348867,0.19927198229651133,0.35471956322040826,2080.301932300991,5044.05602585228
1.7430659722222224,843.2894844462979,842.8681847887725,0.18885776435124169,0.2948080007487153,0.19919199925128467,0.3547195632204088,2080.1616546149507,5048.094964467535
1.7466822916666667,843.4579510658774,843.0370179479748,0.18907847017717933,0.29488785243629384,0.19911214756370618,0.3547195632204094,2080.021607309572,5052.129186430038
1.7502986111111112,843.6263716201556,843.2057716665009,0.18929885866235804,0.29496758930952593,0.19903241069047403,0.35471956322040993,2079.8817613705055,5056.158703852477
1.7539149305555557,843.794760380573,843.3744617028583,0.18951897366886825,0.2950472272377796,0.1989527727622204,0.35471956322041054,2079.7420889653745,5060.183528906843
1.7575312500000002,843.9631310356615,843.5431031525462,0.18973885729087617,0.29512678145078514,0.1988732185492149,0.3547195632204111,2079.6025633836266,5064.203673819464
1.7611475694444447,844.1314967210635,843.7117104829533,0.18995854994342065,0.2952062665707621,0.19879373342923792,0.3547195632204117,2079.463158980188,5068.21915086631
1.764763888888889,844.2998700478311,843.8802975661941,0.19017809044627237,0.2952856966427598,0.19871430335724025,0.35471956322041226,2079.32385112225,5072.229972368562
1.7683802083333333,844.4682631289777,844.0488777099481,0.1903975161025487,0.29536508516310006,0.19863491483689993,0.35471956322041287,2079.1846161393855,5076.236150688415
1.7719965277777778,844.6366876045058,844.2174636864776,0.19061686277293843,0.2954444451062322,0.19855555489376783,0.3547195632204135,2079.045431276452,5080.2376982251235
1.7756128472222223,844.8051546649567,844.3860677599221,0.19083616494558334,0.2955237889500157,0.19847621104998428,0.35471956322041404,2078.906274649244,5084.234627411243
1.7792291666666669,844.9736750736021,844.5547017119861,0.1910554558020054,0.29560312869957345,0.19839687130042657,0.35471956322041465,2078.767125202665,5088.226950709094
1.7828454861111114,845.1422591874227,844.7233768661622,0.1912747672796127,0.2956824759099059,0.19831752409009415,0.35471956322041526,2078.6279626710593,5092.214680607398
1.7864618055555557,845.3109169769501,844.8921041105832,0.19149413013095629,0.2957618417073305,0.19823815829266953,0.3547195632204159,2078.488767540617,5096.1978296181105
1.790078125,845.4796580452347,845.0608939197077,0.19171357398083483,0.2958412368101424,0.1981587631898576,0.35471956322041653,2078.3495210131327,5100.1764102734105
1.7936944444444445,845.6484916462924,845.2297563750993,0.19193312738265322,0.29592067154900487,0.19807932845099513,0.35471956322041714,2078.210204970247,5104.150435122864
1.797310763888889,845.8174267037615,845.3987011857961,0.1921528178771912,0.29600015588821194,0.1979998441117881,0.35471956322041776,2078.070801936156,5108.119916730739
1.8009270833333335,845.9864718315133,845.567737709384,0.19237267206137665,0.29607969945057055,0.19792030054942947,0.3547195632204184,2077.931295033968,5112.084867673496
1.804543402777778,846.1556353600571,845.7368749762041,0.1925927156839481,0.29615931155201164,0.19784068844798833,0.35471956322041903,2077.7916679250056,5116.045300537468
1.8081597222222223,846.3249253777913,845.9061217223576,0.1928129738078858,0.2962390012603579,0.19776099873964212,0.3547195632204197,2077.651904705733,5120.0012279168
1.8117760416666666,846.4943498081282,846.0754864446337,0.1930334711323722,0.29631877751180913,0.19768122248819084,0.35471956322042036,2077.5119897034615,5123.9526624118325
1.8153923611111111,846.6639165719374,846.2449775081819,0.1932542326924534,0.29639864936408145,0.19760135063591858,0.35471956322042103,2077.37190703238,5127.899616628347
1.8190086805555556,846.8336339507879,846.4146033789195,0.19347528544583742,0.29647862657051255,0.19752137342948745,0.3547195632204217,2077.2316395866683,5131.842103178679
1.8226250000000002,847.0035114199917,846.5843731484963,0.19369666193297944,0.2965587209042863,0.19744127909571368,0.35471956322042236,2077.091166718013,5135.780134687051
1.8262413194444447,847.1735615686916,846.7542977377589,0.19391840872912916,0.29663894921639555,0.19736105078360444,0.35471956322042303,2076.950458872422,5139.713723804572
1.829857638888889,847.3438044735519,846.9243926379876,0.1941406056925838,0.2967193403996879,0.19728065960031207,0.3547195632204237,2076.809465376383,5143.642883246384
1.8334739583333333,847.5142772846028,847.0946839505455,0.19436340805206678,0.29679995061614045,0.19720004938385957,0.35471956322042436,2076.6680877306185,5147.567625878246
1.8370902777777778,847.6850532576294,847.2652205697241,0.19458712940650832,0.29688089332630035,0.19711910667369967,0.3547195632204251,2076.526126943167,5151.487964906257
1.8407065972222223,847.8562707607663,847.4360937033476,0.19481236546899092,0.296962384060024,0.197037615939976,0.35471956322042575,2076.383205008548,5155.40391424775
1.8443229166666668,848.0281457480895,847.6074498482818,0.19504003414299048,0.2970447549161188,0.1969552450838812,0.35471956322042647,2076.2387394776665,5159.315489087387
1.8467337962962962,848.1431930571139,847.7220320300155,0.1951935572915835,0.297100299813701,0.19689970018629901,0.3547195632204269,2076.1413224603207,5161.920783590922
1.849144675925926,848.2584819309931,847.8368406399468,0.1953478147810287,0.2971561103968674,0.1968438896031326,0.3547195632204274,2076.0434394722324,5164.524146274265
1.8503501157407407,848.315904839699,847.894166041104,0.19542375593792502,0.2971835860174545,0.1968164139825455,0.35471956322042764,2075.9952515535606,5165.825104163838
1.8515555555555556,848.3725550102719,847.951099864838,0.19549600693548344,0.2972097265330469,0.1967902734669531,0.35471956322042786,2075.9494051991387,5167.125579084151
1.8527609953703705,848.4275154030296,848.0071272133953,0.19556036554118658,0.29723301156983173,0.1967669884301683,0.3547195632204281,2075.908566905594,5168.42556844034
1.8539664351851852,848.4802194095076,848.0618792290749,0.19561437940116488,0.29725255386262595,0.19674744613737402,0.35471956322042836,2075.874292796558,5169.725067601583
1.8551718750000001,848.5311248067309,848.1155092455584,0.19566044035711713,0.2972692187832216,0.19673078121677842,0.3547195632204286,2075.8450651459652,5171.024071816381
1.856377314814815,848.5810386192411,848.1683840761317,0.19570249111961333,0.2972844328100149,0.19671556718998512,0.3547195632204288,2075.8183821349858,5172.3225780945095
1.8587881944444444,848.6796522999101,848.2727404946802,0.19578296065657777,0.29731354680507105,0.19668645319492897,0.3547195632204293,2075.7673207650873,5174.918092475853
1.861199074074074,848.7775605069612,848.3757748087066,0.19586270822815366,0.2973423995920036,0.1966576004079964,0.3547195632204298,2075.7167175131694,5177.51160796718
1.8636099537037039,848.8750340859136,848.477739122465,0.195942693334557,0.2973713383193809,0.1966286616806191,0.35471956322043025,2075.6659635352235,5180.1031253448855
1.8660208333333335,848.9721567192038,848.5787838581587,0.19602300810456813,0.29740039631952914,0.19659960368047089,0.35471956322043074,2075.6150003715898,5182.692646102657
1.8684317129629633,849.0689838821246,848.6790327695201,0.19610364590417542,0.2974295711922532,0.1965704288077468,0.35471956322043124,2075.563832231833,5185.280172052264
1.8708425925925927,849.1655631339005,848.7785940562126,0.19618459510701908,0.2974588587311194,0.19654114126888064,0.35471956322043174,2075.5124664933774,5187.865705250801
1.8732534722222223,849.261936860328,848.877563146861,0.19626584815980624,0.2974882562033353,0.19651174379666472,0.35471956322043224,2075.46090794911,5190.449247969756
1.8756643518518519,849.3581428984808,848.976024287664,0.19634740095821407,0.29751776212395104,0.19648223787604896,0.35471956322043274,2075.4091592034006,5193.030802670623
1.8780752314814813,849.4542149412028,849.0740518493822,0.19642925165922098,0.29754737582615876,0.19645262417384127,0.35471956322043324,2075.3572214257247,5195.610371982931
1.880486111111111,849.5501829279503,849.1717114789948,0.19651139984704097,0.2975770971595264,0.19642290284047362,0.35471956322043374,2075.3050948799164,5198.187958684289
1.8828969907407407,849.6460734267231,849.2690611221603,0.19659384600808874,0.29760692630003954,0.19639307369996045,0.35471956322043424,2075.2527792573246,5200.763565682439
1.8853078703703705,849.7419099955732,849.3661519298587,0.19667659120627207,0.2976368636326216,0.1963631363673784,0.35471956322043474,2075.200273882854,5203.337195999197
1.8877187500000001,849.8377135166559,849.4630290609351,0.19675963688220124,0.2976669096784874,0.19633309032151258,0.35471956322043524,2075.147577842377,5205.908852756175
1.89012962962963,849.933502499971,849.5597323914895,0.19684298472791278,0.29769706504981824,0.19630293495018172,0.35471956322043574,2075.0946900622225,5208.4785391621135
1.8925405092592593,850.0292933567144,849.656297141318,0.1969266366078348,0.29772733042116695,0.19627266957883305,0.35471956322043624,2075.0416093593312,5211.046258501688
1.8949513888888891,850.1251006436455,849.7527544267572,0.19701059450835953,0.297757706511213,0.19624229348878694,0.3547195632204368,2074.9883344732525,5213.612014125622
1.8973622685185187,850.2209372804849,849.849131748313,0.19709486050480785,0.29778819407081064,0.19621180592918935,0.3547195632204373,2074.9348640871062,5216.175809441968
1.8997731481481486,850.3168147427876,849.9454534206559,0.19717943673951502,0.2978187938750598,0.19618120612494022,0.3547195632204378,2074.881196841489,5218.737647908417
1.9021840277777782,850.4127432326733,850.0417409516951,0.19726432540682043,0.29784950671787563,0.1961504932821244,0.35471956322043835,2074.8273313439977,5221.297533025536
1.904594907407408,850.508731829748,850.1380133767086,0.19734952874251643,0.29788033340817105,0.19611966659182897,0.35471956322043885,2074.7732661759273,5223.855468330807
1.9070057870370374,850.6047886243763,850.2342875528159,0.1974350490161699,0.2979112747670786,0.19608872523292137,0.3547195632204394,2074.7189998971394,5226.411457393381
1.909416666666667,850.7009208352922,850.3305784184807,0.1975208885253824,0.297942331625874,0.196057668374126,0.3547195632204399,2074.664531049708,5228.965503809472
1.9118275462962966,850.797134913328,850.4268992221732,0.19760704959133135,0.29797350482436247,0.19602649517563753,0.35471956322044046,2074.609858160746,5231.517611198292
1.914238425925926,850.8934366328702,850.5232617238419,0.19769353455521013,0.2980047952095912,0.1959952047904088,0.354719563220441,2074.554979744667,5234.067783198485
1.9166493055555558,850.9898311725024,850.6196763724387,0.19778034577545955,0.2980362036348475,0.1959637963651525,0.3547195632204415,2074.4998943049377,5236.616023464992
1.9190601851851854,851.0863231860383,850.7161524623008,0.19786748562529743,0.29806773095876504,0.19593226904123495,0.35471956322044207,2074.4446003356506,5239.16233566629
1.9214710648148152,851.1829168651515,850.8126982709376,0.1979549564908026,0.29809937804463055,0.19590062195536945,0.3547195632204426,2074.3890963227363,5241.706723481972
1.9238819444444448,851.2796159945257,850.9093211803969,0.19804276076914282,0.2981311457597428,0.19586885424025716,0.3547195632204432,2074.3333807450886,5244.249190600614
1.9262928240740742,851.3764240004749,851.0060277841932,0.19813090086719984,0.2981630349749152,0.19583696502508482,0.3547195632204437,2074.2774520754388,5246.789740717908
1.928703703703704,851.4733439937625,851.1028239814916,0.19821937920031787,0.2981950465640226,0.19580495343597737,0.35471956322044423,2074.221308781147,5249.328377535018
1.9311145833333336,851.5703788073029,851.1997150600606,0.19830819819114326,0.2982271814035821,0.19577281859641787,0.3547195632204448,2074.16494932494,5251.865104757138
1.9335254629629632,851.6675310294102,851.2967057693568,0.1983973602687907,0.2982594403724509,0.19574055962754908,0.35471956322044534,2074.108372165441,5254.399926092229
1.935936342592593,851.764803033046,851.3938003848767,0.19848686786793981,0.2982918243514996,0.19570817564850043,0.3547195632204459,2074.051575757741,5256.932845249904
1.9383472222222224,851.8621970016086,851.4910027648501,0.19857672342818022,0.2983243342233752,0.19567566577662482,0.35471956322044645,2073.9945585538158,5259.463865940458
1.940758101851852,851.959714951644,851.5883164001699,0.19866692939342262,0.2983569708722882,0.1956430291277118,0.354719563220447,2073.937319002899,5261.992991874018
1.9431689814814819,852.0573587528316,851.685744458356,0.1987574882113118,0.29838973518379996,0.1956102648162,0.3547195632204476,2073.8798555518565,5264.520226759789
1.9455798611111115,852.1551301456029,851.783289822282,0.19884840233278858,0.2984226280446645,0.19557737195533545,0.3547195632204482,2073.82216664546,5267.045574305402
1.9479907407407413,852.2530307566517,851.8809551242767,0.19893967421168787,0.29845565034268284,0.19554434965731715,0.35471956322044873,2073.7642507266464,5269.569038216344
1.9504016203703707,852.3510621126019,851.9787427761587,0.19903130630442217,0.2984888029665886,0.19551119703341144,0.3547195632204493,2073.706106236717,5272.090622195455
1.9528125000000003,852.4492256520346,852.0766549956802,0.19912330106966505,0.2985220868059333,0.19547791319406668,0.3547195632204499,2073.6477316155374,5274.610329942493
1.9564288194444446,852.5967217637755,852.2237613253061,0.19926197861171668,0.2985722605415604,0.19542773945843964,0.35471956322045073,2073.5597347717826,5278.386381712524
1.960045138888889,852.7445226501045,852.3711587962864,0.19940148601600793,0.298622734522548,0.19537726547745202,0.3547195632204516,2073.471211344871,5282.158232734823
1.9636614583333336,852.8926323408533,852.5188530722769,0.19954183160248656,0.29867351175906537,0.19532648824093463,0.3547195632204525,2073.3821560554393,5285.9258954467505
1.9672777777777781,853.0410546307357,852.6668492972003,0.19968302369786628,0.2987245952637295,0.19527540473627047,0.3547195632204534,2073.292563619831,5289.689382262636
1.9708940972222226,853.1897931208225,852.8151521863093,0.19982507063487967,0.29877598805133526,0.19522401194866473,0.3547195632204543,2073.20242875057,5293.448705572399
1.974510416666667,853.3388512528115,852.9637661014162,0.19996798075169905,0.2988276931386453,0.19517230686135467,0.35471956322045517,2073.111746156729,5297.203877740429
1.9781267361111112,853.4882323373512,853.1126951130466,0.20011176239151715,0.298879713544239,0.19512028645576102,0.3547195632204561,2073.020510544194,5300.95491110471
1.9817430555555557,853.6379395774921,853.2619430518104,0.20025642390244697,0.2989320522884756,0.1950679477115244,0.354719563220457,2072.92871661573,5304.701817976125
1.9853593750000003,853.787976088023,853.4115135508176,0.20040197363726478,0.29898471239340174,0.19501528760659828,0.35471956322045795,2072.8363590711424,5308.44461063792
1.9889756944444448,853.9383449114929,853.5614100807416,0.20054841995342995,0.2990376968827583,0.19496230311724172,0.35471956322045883,2072.743432607265,5312.18330134529
1.9925920138888893,854.0890490314877,853.7116359788041,0.20069577121328067,0.2990910087820513,0.1949089912179487,0.3547195632204598,2072.6499319178356,5315.917902325077
1.9962083333333336,854.2400913835479,853.8621944726965,0.2008440357839548,0.29914465111852345,0.19485534888147657,0.3547195632204607,2072.555851693547,5319.648425775553
1.999824652777778,854.3914748642802,854.0130887003857,0.20099322203775277,0.29919862692128507,0.19480137307871492,0.35471956322046166,2072.4611866218156,5323.374883866269
2.0034409722222226,854.5432023388577,854.1643217264676,0.20114333835229029,0.29925293922136975,0.19474706077863024,0.3547195632204626,2072.365931386685,5327.097288737972
2.007057291666667,854.6952766472658,854.315896555705,0.20129439311084812,0.29930759105186056,0.19469240894813944,0.35471956322046355,2072.270080668605,5330.815652502565
2.010673611111111,854.8477006094513,854.4678161442079,0.20144639470258302,0.29936258544796657,0.1946374145520334,0.35471956322046455,2072.1736291442953,5334.529987243106
2.014289930555556,855.0004770296451,854.6200834087136,0.20159935152300995,0.2994179254471973,0.19458207455280271,0.3547195632204655,2072.076571486442,5338.240305013845
2.0179062500000002,855.1536086999026,854.772701234242,0.2017532719742236,0.29947361408944273,0.1945263859105573,0.3547195632204665,2071.9789023635562,5341.946617840278
2.0215225694444445,855.307098403108,854.9256724804678,0.20190816446542784,0.299529654417165,0.194470345582835,0.35471956322046744,2071.8806164396374,5345.648937719243
2.0251388888888893,855.46094891541,855.0789999869687,0.2020640374131281,0.299586049475468,0.19441395052453198,0.35471956322046844,2071.7817083740524,5349.347276619007
2.0287552083333336,855.6151630083493,855.2326865776291,0.2022208992417928,0.29964280231233664,0.19435719768766335,0.35471956322046944,2071.682172821115,5353.041646479393
2.032371527777778,855.7697434505591,855.3867350642588,0.2023787583840963,0.2996999159787247,0.19430008402127533,0.35471956322047044,2071.5820044299317,5356.732059211902
2.0359878472222226,855.9246930092567,855.5411482496374,0.2025376232814905,0.29975739352876163,0.1942426064712384,0.3547195632204715,2071.4811978440393,5360.4185266998575
2.039604166666667,856.0800144514589,855.695928930031,0.20269750238455544,0.2998152380198796,0.1941847619801204,0.3547195632204725,2071.379747701183,5364.101060798547
2.043220486111111,856.2357105450433,855.8510798973107,0.20285840415351633,0.29987345251300035,0.19412654748699967,0.3547195632204735,2071.277648632987,5367.779673335382
2.046836805555556,856.3917840596448,856.0066039407276,0.20302033705872133,0.2999320400727081,0.19406795992729192,0.35471956322047454,2071.174895264653,5371.454376110051
2.050453125,856.5482377674119,856.1625038483966,0.20318330958106262,0.2999910037674019,0.19400899623259807,0.3547195632204756,2071.071482214691,5375.125180894692
2.0540694444444445,856.7050744436953,856.3187824085694,0.20334733021257764,0.3000503466695133,0.19394965333048672,0.35471956322047665,2070.967404094539,5378.792099434052
2.0576857638888892,856.8622968675929,856.4754424106873,0.2035124074567878,0.30011007185562855,0.19388992814437145,0.3547195632204777,2070.8626555083483,5382.455143445665
2.0613020833333335,857.0199078224792,856.6324866463018,0.20367854982929776,0.3001701824067058,0.1938298175932942,0.35471956322047876,2070.7572310526034,5386.114324620022
2.064918402777778,857.1779100964544,856.7899179098589,0.20384576585830283,0.3002306814082585,0.1937693185917415,0.3547195632204798,2070.6511253157987,5389.769654620745
2.0685347222222226,857.3363064827495,856.9477389993775,0.20401406408510334,0.3002915719505414,0.1937084280494586,0.3547195632204809,2070.5443328781125,5393.421145084771
2.072151041666667,857.495099780075,857.1059527170298,0.20418345306455854,0.30035285712871507,0.19364714287128493,0.354719563220482,2070.4368483111207,5397.068807622523
2.075767361111111,857.6542927929755,857.2645618696718,0.20435394136571014,0.30041454004307117,0.19358545995692886,0.3547195632204831,2070.328666177398,5400.712653818095
2.079383680555556,857.8138883321157,857.4235692692903,0.20452553757221495,0.3004766237991891,0.19352337620081086,0.3547195632204842,2070.2197810302478,5404.352695229431
2.083,857.9738892146003,857.5829777334347,0.20469825028303953,0.3005391115081876,0.19346088849181245,0.3547195632204853,2070.1101874132564,5407.988943388507
2.0866163194444445,858.1342982641951,857.742790085562,0.20487208811277305,0.3006020062868373,0.1933979937131627,0.3547195632204864,2069.9998798600977,5411.621409801513
2.090232638888889,858.2951183116288,857.9030091554013,0.2050470596923925,0.3006653112578383,0.1933346887421617,0.35471956322048753,2069.8888528940474,5415.250105949037
2.0938489583333335,858.456352194824,858.0636377792619,0.20522317366974785,0.30072902954999525,0.19327097045000474,0.3547195632204887,2069.7771010276733,5418.8750432862425
2.097465277777778,858.6180027591226,858.2246788003204,0.2054004387100642,0.3007931642983991,0.1932068357016009,0.3547195632204898,2069.6646187625197,5422.496233243063
2.1010815972222225,858.7800728575397,858.3861350689097,0.2055788634966226,0.30085771864467353,0.19314228135532646,0.354719563220491,2069.5514005886716,5426.113687224376
2.104697916666667,858.9425653509765,858.548009442776,0.20575845673126725,0.3009226957371584,0.1930773042628416,0.35471956322049214,2069.4374409844368,5429.727416610191
2.108314236111111,859.1054831084426,858.7103047873314,0.20593922713498927,0.3009880987311209,0.19301190126887904,0.3547195632204933,2069.3227344159723,5433.337432755834
2.111930555555556,859.2688290072834,858.8730239759027,0.20612118344854785,0.30105393078898046,0.19294606921101956,0.35471956322049447,2069.2072753368916,5436.943746992133
2.115546875,859.4326059334051,859.0361698899728,0.2063043344330945,0.3011201950805343,0.19287980491946574,0.35471956322049564,2069.091058187869,5440.5463706256
2.1191631944444445,859.5968167814646,859.1997454194,0.20648868887064886,0.30118689478312977,0.19281310521687023,0.35471956322049686,2068.974077396336,5444.14531493862
2.122779513888889,859.761464455118,859.3637534626627,0.2066742555648522,0.30125403308193716,0.19274596691806284,0.354719563220498,2068.8563273760055,5447.740591189633
2.1263958333333335,859.9265518672165,859.5281969270762,0.20686104334148323,0.301321613170136,0.192678386829864,0.35471956322049925,2068.737802526543,5451.332210613322
2.130012152777778,860.0920819400293,859.6930787290199,0.20704906104910667,0.30138963824914977,0.19261036175085022,0.35471956322050047,2068.618497233154,5454.920184420797
2.1336284722222225,860.2580576054731,859.8584017941675,0.2072383175597498,0.3014581115288908,0.1925418884711092,0.3547195632205017,2068.4984058661576,5458.504523799783
2.137244791666667,860.4244818053066,860.0241690576972,0.20742882176942143,0.301527036227948,0.192472963772052,0.35471956322050296,2068.377522780655,5462.085239914801
2.140861111111111,860.5913574913775,860.1903834645293,0.20762058259887647,0.3015964155738634,0.19240358442613661,0.3547195632205042,2068.2558423160444,5465.662343907363
2.144477430555556,860.758687625812,860.3570479695323,0.2078136089941104,0.3016662528033111,0.19233374719668891,0.35471956322050546,2068.133358795709,5469.23584689615
2.14809375,860.9264751812743,860.5241655377667,0.20800790992717863,0.3017365511623938,0.1922634488376062,0.35471956322050674,2068.010066526494,5472.8057599772055
2.1517100694444444,861.0947231411474,860.6917391446865,0.20820349439665053,0.3018073139068069,0.19219268609319315,0.35471956322050796,2067.8859597984224,5476.372094224116
2.155326388888889,861.2634344997964,860.8597717763844,0.20840037142844345,0.30187854430214034,0.19212145569785968,0.3547195632205093,2067.761032884163,5479.934860688206
2.1589427083333335,861.4326122627767,861.0282664298102,0.2085985500763959,0.30195024562408607,0.19204975437591396,0.35471956322051057,2067.635280038666,5483.494070398717
2.1625590277777778,861.602259447067,861.1972261129999,0.20879803942295638,0.30202242115868705,0.19197757884131292,0.35471956322051185,2067.5086954987305,5487.049734363002
2.1661753472222225,861.772379081288,861.3666538453001,0.20899884857980325,0.3020950742025618,0.19190492579743818,0.3547195632205132,2067.3812734826042,5490.601863566713
2.169791666666667,861.9429742059506,861.536552657606,0.2092009866885959,0.3021682080631759,0.1918317919368241,0.3547195632205145,2067.2530081895134,5494.150468973984
2.173407986111111,862.1140478736759,861.7069255925879,0.2094044629215937,0.3022418260590661,0.19175817394093395,0.35471956322051584,2067.1238937992666,5497.695561527624
2.177024305555556,862.2856031494334,861.8777757049262,0.20960928648235733,0.30231593152009384,0.19168406847990616,0.3547195632205172,2066.9939244718094,5501.237152149307
2.180640625,862.457643110789,862.0491060615527,0.20981546660648553,0.3023905277877123,0.1916094722122877,0.3547195632205185,2066.8630943467588,5504.775251739757
2.1842569444444444,862.630170848115,862.220919741873,0.21002301256217998,0.3024656182151702,0.1915343817848298,0.3547195632205199,2066.7313975430443,5508.309871178941
2.187873263888889,862.8031894648605,862.3932198380203,0.21023193365108306,0.30254120616781527,0.19145879383218473,0.3547195632205213,2066.598828158374,5511.841021326258
2.1914895833333334,862.9767020777755,862.5660094550875,0.2104422392088966,0.3026172950233179,0.19138270497668208,0.3547195632205226,2066.4653802688463,5515.368713020727
2.1951059027777777,863.150711817147,862.7392917113642,0.21065393860605144,0.3026938881719136,0.1913061118280864,0.354719563220524,2066.33104792852,5518.892957081182
2.1987222222222225,863.3252218270568,862.913069738587,0.2108670412484823,0.30277098901668315,0.19122901098331688,0.35471956322052545,2066.1958251689275,5522.41376430646
2.2023385416666668,863.5002352656248,863.0873466821821,0.21108155657831892,0.30284860097380273,0.19115139902619727,0.35471956322052683,2066.0597059986317,5525.931145475589
2.205954861111111,863.675755305245,863.2621257015065,0.2112974940745483,0.30292672747278365,0.19107327252721637,0.3547195632205283,2065.9226844028103,5529.445111347988
2.209571180555556,863.8517851328419,863.4374099700989,0.21151486325376673,0.30300537195674415,0.19099462804325582,0.3547195632205297,2065.7847543427742,5532.955672663651
2.2131875,864.0283279501112,863.6132026759227,0.2117336736708553,0.30308453788265416,0.19091546211734584,0.35471956322053116,2065.645909755542,5536.462840143343
2.2168038194444444,864.205386973783,863.7895070216227,0.21195393491975334,0.30316422872161475,0.19083577127838527,0.3547195632205326,2065.5061445533483,5539.966624488793
2.220420138888889,864.3829654358567,863.9663262247681,0.21217565663410004,0.3032444479590905,0.1907555520409095,0.35471956322053405,2065.3654526232363,5543.467036382885
2.2240364583333334,864.5610665838662,864.1436635181091,0.21239884848801277,0.3033251990951912,0.19067480090480882,0.35471956322053555,2065.2238278265636,5546.964086489854
2.2276527777777777,864.7396936811318,864.3215221498309,0.21262352019679728,0.30340648564492845,0.19059351435507155,0.35471956322053705,2065.0812639985525,5550.457785455478
2.2312690972222224,864.9188500069988,864.4999053837987,0.21284968151759753,0.30348831113845115,0.19051168886154887,0.35471956322053855,2064.9377549478763,5553.948143907272
2.2348854166666667,865.098538857122,864.6788164998277,0.21307734225025182,0.3035706791213549,0.1904293208786451,0.35471956322054005,2064.793294456119,5557.435172454686
2.238501736111111,865.2787635436908,864.8582587939238,0.2133065122378699,0.30365359315489115,0.19034640684510884,0.35471956322054154,2064.647876277404,5560.918881689295
2.2421180555555558,865.4595273957042,865.0382355785488,0.2135372013676388,0.30373705681625845,0.19026294318374154,0.3547195632205431,2064.501494137889,5564.399282184999
2.245734375,865.6408337592276,865.2187501828787,0.21376941957154524,0.303821073698864,0.19017892630113598,0.35471956322054465,2064.3541417353013,5567.876384498215
2.2493506944444444,865.8226859976431,865.3998059530576,0.21400317682705428,0.30390564741256915,0.19009435258743088,0.3547195632205462,2064.205812738513,5571.350199168078
2.252967013888889,866.0050874919116,865.5814062524582,0.21423848315785146,0.30399078158395776,0.19000921841604224,0.35471956322054776,2064.056500787065,5574.820736716634
2.2565833333333334,866.1880416408377,865.7635544619454,0.2144753486345883,0.3040764798566062,0.1899235201433938,0.35471956322054937,2063.906199490698,5578.288007649037
2.2601996527777777,866.371551861331,865.9462539801374,0.21471378337560604,0.304162745891345,0.189837254108655,0.354719563220551,2063.7549024288905,5581.752022453751
2.2638159722222224,866.5556215886527,866.1295082236596,0.21495379754759208,0.3042495833664963,0.18975041663350367,0.35471956322055254,2063.6026031504434,5585.212791602743
2.2674322916666667,866.7402542766963,866.3133206274169,0.2151954013663934,0.3043369959781685,0.1896630040218315,0.3547195632205542,2063.449295172965,5588.670325551681
2.271048611111111,866.9254533982323,866.4976946448475,0.21543860509765453,0.30442498744048657,0.18957501255951345,0.3547195632205558,2063.2949719824624,5592.12463474014
2.2746649305555557,867.1112224451816,866.6826337481908,0.21568341905758862,0.30451356148587133,0.1894864385141287,0.3547195632205575,2063.1396270328573,5595.575729591794
2.27828125,867.29756492888,866.8681414287536,0.2159298536137043,0.30460272186530246,0.18939727813469753,0.3547195632205591,2062.9832537455213,5599.0236205146175
2.2818975694444443,867.4844843803237,867.054221197164,0.21617791918544238,0.3046924723485488,0.18930752765145123,0.35471956322056075,2062.8258455088717,5602.468317901087
2.285513888888889,867.6719843504612,867.2408765836507,0.21642762624502224,0.3047828167244744,0.18921718327552559,0.3547195632205625,2062.6673956778372,5605.909832128383
2.2891302083333334,867.8600684104262,867.4281111382923,0.21667898531801333,0.3048737588012456,0.1891262411987544,0.35471956322056414,2062.5078975734928,5609.348173558584
2.2927465277777777,868.0487401518254,867.6159284312944,0.21693200698416232,0.30496530240663006,0.18903469759336997,0.35471956322056586,2062.3473444825354,5612.783352538877
2.2963628472222224,868.2380031869949,867.8043320532515,0.2171867018780607,0.30505745138823837,0.18894254861176166,0.3547195632205676,2062.1857296568614,5616.215379401755
2.2999791666666667,868.4278611492647,867.9933256154134,0.21744308068986057,0.30515020961378303,0.18884979038621696,0.3547195632205693,2062.023046313111,5619.644264465216
2.303595486111111,868.6183176932096,868.1829127499425,0.21770115416591593,0.30524358097131055,0.18875641902868945,0.3547195632205711,2061.8592876322623,5623.070018032973
2.3072118055555557,868.8093764949341,868.373097110191,0.21796093310958578,0.3053375693694918,0.1886624306305082,0.35471956322057285,2061.69444675912,5626.492650394652
2.310828125,869.0010412523286,868.5638823709633,0.21822242838189446,0.30543217873786116,0.18856782126213883,0.35471956322057463,2061.5285168019,5629.912171825993
2.3144444444444443,869.1933156853327,868.7552722287808,0.2184856509022242,0.30552741302706693,0.18847258697293304,0.3547195632205764,2061.361490831786,5633.328592589062
2.318060763888889,869.3862035362083,868.947270402154,0.2187506116490547,0.30562327620913904,0.18837672379086098,0.3547195632205782,2061.1933618824614,5636.741922932451
2.3216770833333333,869.5797085697873,869.1398806318391,0.21901732166057608,0.3057197722777105,0.18828022772228947,0.35471956322058,2061.024122949722,5640.152173091479
2.3252934027777776,869.7738345737513,869.3331066811121,0.21928579203545429,0.3058169052482949,0.1881830947517051,0.35471956322058185,2060.8537669909883,5643.559353288404
2.3289097222222224,869.9685853588958,869.5269523360366,0.21955603393351586,0.30591467915853354,0.18808532084146645,0.3547195632205837,2060.6822869248726,5646.963473732624
2.3325260416666667,870.1639647593793,869.7214214057205,0.21982805857636534,0.30601309806841925,0.18798690193158074,0.35471956322058557,2060.5096756307858,5650.364544620886
2.336142361111111,870.359976633012,869.916517722596,0.2201018772481789,0.30611216606058334,0.18788783393941666,0.35471956322058745,2060.335925948434,5653.762576137487
2.3397586805555557,870.556624861507,870.11224514268,0.22037750129632513,0.3062118872405201,0.18778811275947987,0.35471956322058934,2060.161030677426,5657.1575784544875
2.343375,870.7539133507347,870.308607545834,0.22065494213199607,0.3063122657368155,0.1876877342631845,0.3547195632205912,2059.9849825768715,5660.549561731917
2.3469913194444443,870.9518460310114,870.505608836044,0.22093421123099688,0.3064133057014324,0.18758669429856764,0.35471956322059317,2059.8077743648796,5663.9385361179775
2.350607638888889,871.1504268573464,870.7032529416782,0.2212153201343346,0.30651501130992376,0.18748498869007624,0.3547195632205951,2059.6293987181875,5667.324511749255
2.3542239583333338,871.3496598097039,870.9015438157516,0.22149828044888337,0.3066173867616736,0.1873826132383264,0.35471956322059706,2059.449848271736,5670.707498750929
2.357840277777778,871.5495488932793,871.1004854361981,0.2217831038481036,0.30672043628015677,0.18727956371984322,0.354719563220599,2059.269115618213,5674.087507236975
2.3614565972222223,871.7500964896166,871.3000809417662,0.22206979451438189,0.3068241613785668,0.18717583862143322,0.354719563220601,2059.087198103717,5677.46454731045
2.365072916666667,871.9512998441655,871.5003299947073,0.2223583352395517,0.30692855583096407,0.18707144416903593,0.354719563220603,2058.9041066475656,5680.838629021863
2.368689236111112,872.1531714196406,871.7012408397409,0.22264877687117232,0.30703363803406925,0.18696636196593075,0.354719563220605,2058.719808984804,5684.209762431506
2.372305555555556,872.3557154430706,871.9028178629212,0.22294113122739487,0.3071394122637065,0.1868605877362935,0.35471956322060705,2058.5342976163083,5687.577957610717
2.3759218750000004,872.5589361408631,872.1050654145977,0.22323541020271304,0.30724588282332094,0.18675411717667909,0.3547195632206091,2058.3475649945126,5690.943224621333
2.3795381944444447,872.7628377442793,872.3079878212559,0.223531625768224,0.30735305404407276,0.18664694595592723,0.35471956322061116,2058.1596035232433,5694.3055735157395
2.383154513888889,872.9674244939498,872.5115893952401,0.22382978997192565,0.3074609302849451,0.18653906971505488,0.3547195632206132,2057.9704055575285,5697.6650143369625
2.3867708333333337,873.1727006436072,872.7158744427448,0.22412991493904377,0.30756951593286225,0.18643048406713775,0.3547195632206153,2057.7799634033936,5701.021557118776
2.390387152777778,873.3786704631763,872.9208472703868,0.22443201287238412,0.307678815402817,0.18632118459718303,0.35471956322061743,2057.588269317635,5704.3752118858365
2.3940034722222223,873.5853382413407,873.1265121906201,0.22473609605270556,0.30778883313800565,0.18621116686199435,0.3547195632206196,2057.3953155075847,5707.725988653833
2.397619791666667,873.7927082876798,873.3328735262006,0.22504217683910985,0.30789957360996917,0.18610042639003083,0.3547195632206217,2057.201094130863,5711.0738974296455
2.401236111111112,874.0007849344569,873.5399356138778,0.22535026766944619,0.3080110413187394,0.1859889586812606,0.35471956322062387,2057.005597295122,5714.418948211522
2.404852430555556,874.2095725381184,873.7477028074511,0.22566038106072753,0.30812324079298975,0.18587675920701024,0.3547195632206261,2056.80881705778,5717.761150989256
2.4084687500000004,874.4190754805622,873.9561794803085,0.22597252960955744,0.3082361765901897,0.18576382340981032,0.35471956322062825,2056.6107454257526,5721.100515744384
2.412085069444445,874.6292981702126,874.1653700275422,0.22628672599256505,0.30834985329676196,0.18565014670323807,0.3547195632206305,2056.4113743551748,5724.437052450376
2.4157013888888894,874.8402450429403,874.375278867718,0.22660298296684725,0.3084642755282427,0.1855357244717573,0.35471956322063275,2056.2106957511223,5727.770771072835
2.4193177083333337,875.0519205628556,874.5859104443622,0.22692131337041754,0.30857944792944375,0.18542055207055622,0.35471956322063497,2056.0087014673254,5731.101681569704
2.422934027777778,875.2643292229966,874.7972692272177,0.2272417301226596,0.308695375174617,0.185304624825383,0.35471956322063725,2055.8053833058816,5734.429793891476
2.4265503472222223,875.4774755459343,875.0093597133117,0.22756424622478594,0.3088120619676198,0.1851879380323802,0.3547195632206396,2055.6007330169637,5737.755117981404
2.430166666666667,875.6913640843076,875.2221864278702,0.22788887476029998,0.3089295130420827,0.1850704869579173,0.35471956322064185,2055.3947422985284,5741.077663775709
2.4337829861111113,875.9059994213027,875.4357539251058,0.22821562889546204,0.3090477331615778,0.1849522668384222,0.3547195632206442,2055.1874027960193,5744.397441203802
2.4373993055555556,876.1213861710877,875.6500667889053,0.22854452187975832,0.3091667271197884,0.18483327288021165,0.35471956322064657,2054.9787061020697,5747.714460188498
2.4410156250000004,876.337528979209,875.865129633432,0.22887556704637246,0.3092864997406795,0.18471350025932046,0.3547195632206489,2054.7686437562033,5751.028730646231
2.444631944444445,876.5544325229587,876.0809471036623,0.22920877781265947,0.30940705587866985,0.18459294412133018,0.3547195632206513,2054.557207244533,5754.340262487278
2.4482482638888894,876.7721015117177,876.2975238758646,0.229544167680622,0.30952840041880336,0.18447159958119666,0.35471956322065373,2054.344387999459,5757.649065615972
2.4518645833333337,876.9905406872786,876.5148646580366,0.22988175023738872,0.3096505382769229,0.1843494617230771,0.3547195632206562,2054.130177399367,5760.95514993093
2.4554809027777784,877.2097548241543,876.7329741903036,0.23022153915569415,0.30977347439984376,0.18422652560015626,0.3547195632206586,2053.9145667683197,5764.258525325269
2.4590972222222227,877.429748729872,876.9518572452887,0.23056354819436028,0.3098972137655275,0.18410278623447252,0.35471956322066106,2053.6975473757557,5767.559201686828
2.462713541666667,877.6505272452598,877.1715186284596,0.23090779119877988,0.3100217613832574,0.18397823861674262,0.35471956322066356,2053.47911043618,5770.857188898393
2.4663298611111113,877.8720952447228,877.391963178455,0.23125428210140098,0.31014712229381325,0.18385287770618675,0.3547195632206661,2053.259247108857,5774.152496837918
2.4699461805555556,878.094457636515,877.6131957673966,0.2316030349222128,0.31027330156964755,0.18372669843035247,0.3547195632206686,2053.0379484975024,5777.445135378746
2.4735625000000003,878.3176193630055,877.8352213011893,0.23195406376923278,0.3104003043150614,0.1835996956849386,0.35471956322067116,2052.8152056499744,5780.735114389837
2.4771788194444446,878.541585400941,878.0580447198099,0.2323073828389947,0.31052813566638127,0.18347186433361873,0.3547195632206738,2052.5910095579648,5784.022443735986
2.480795138888889,878.7663607617059,878.2816709975901,0.23266300641703822,0.31065680079213615,0.18334319920786385,0.3547195632206764,2052.365351156686,5787.307133278049
2.4844114583333337,878.9919504915802,878.506105143492,0.23302094887839886,0.3107863048932347,0.1832136951067653,0.354719563220679,2052.138221324561,5790.589192873174
2.4880277777777784,879.2183596719963,878.7313522013798,0.2333812246880991,0.31091665320314305,0.18308334679685698,0.3547195632206816,2051.9096108829144,5793.8686323750135
2.4916440972222227,879.4455934197947,878.9574172502871,0.23374384840164053,0.31104785098806265,0.18295214901193735,0.35471956322068426,2051.679510595656,5797.145461633956
2.495260416666667,879.6736568874795,879.1843054046833,0.23410883466549656,0.31117990354710895,0.18282009645289107,0.354719563220687,2051.447911168971,5800.419690497355
2.4988767361111117,879.9025552634735,879.4120218147359,0.23447619821760585,0.31131281621248935,0.18268718378751064,0.3547195632206897,2051.2148032510054,5803.691328809746
2.502493055555556,880.1322937723738,879.640571666573,0.23484595388786628,0.3114465943496825,0.18255340565031747,0.3547195632206924,2050.980177431554,5806.960386413076
2.5061093750000003,880.3628776752076,879.8699601825448,0.23521811659863,0.31158124335761705,0.18241875664238297,0.3547195632206952,2050.744024241744,5810.226873146931
2.5097256944444446,880.5943122696888,880.1001926214841,0.23559270136519841,0.3117167686688507,0.18228323133114932,0.354719563220698,2050.506334153723,5813.49079884876
2.513342013888889,880.826602890475,880.3312742789678,0.23596972329631793,0.3118531757497498,0.1821468242502502,0.3547195632207008,2050.267097580345,5816.7521733541025
2.5169583333333336,881.0597549094257,880.5632104875777,0.23634919759467626,0.3119904701006689,0.1820095298993311,0.35471956322070364,2050.0263048748525,5820.011006496815
2.520574652777778,881.2937737358612,880.7960066171621,0.23673113955739858,0.3121286572561299,0.18187134274387007,0.35471956322070647,2049.783946330564,5823.267308109295
2.524190972222222,881.5286648168227,881.0296680750981,0.2371155645765446,0.31226774278500247,0.18173225721499756,0.35471956322070936,2049.540012180558,5826.521088022715
2.527807291666667,881.7644336373334,881.264200306555,0.2375024881396055,0.3124077322906832,0.1815922677093168,0.35471956322071224,2049.294492597357,5829.772356067244
2.5314236111111117,882.0010857206604,881.4996087947571,0.23789192583000085,0.3125486314112759,0.18145136858872407,0.3547195632207152,2049.0473776926146,5833.021122072278
2.535039930555556,882.238626628579,881.7358990612499,0.23828389332757605,0.31269044581977146,0.1813095541802285,0.3547195632207181,2048.798657516796,5836.267395866667
2.5386562500000003,882.4770619616365,881.9730766661648,0.23867840640909962,0.3128331812242275,0.18116681877577248,0.3547195632207211,2048.548322058866,5839.511187278947
2.542272569444445,882.7163973594184,882.2111472084872,0.23907548094876038,0.31297684336794857,0.18102315663205146,0.3547195632207241,2048.2963612459707,5842.7525061375645
2.5458888888888893,882.9566385008154,882.4501163263238,0.2394751329186643,0.31312143802966563,0.18087856197033433,0.3547195632207272,2048.0427649431253,5845.9913622711065
2.5495052083333336,883.1977911042922,882.6899896971725,0.2398773783893318,0.3132669710237164,0.18073302897628357,0.3547195632207302,2047.7875229528952,5849.227765508533
2.553121527777778,883.4398609281565,882.9307730381928,0.24028223353019423,0.31341344820022454,0.18058655179977545,0.35471956322073334,2047.5306250150834,5852.461725679404
2.556737847222222,883.6828537708308,883.172472106478,0.2406897146100901,0.3135608754452794,0.18043912455472064,0.35471956322073644,2047.2720608064146,5855.69325261411
2.560354166666667,883.9267754711238,883.4150926993278,0.24109983799776114,0.3137092586811153,0.18029074131888467,0.3547195632207396,2047.0118199402207,5858.922356144106
2.5639704861111112,884.1716319085045,883.6586406545231,0.24151262016234745,0.3138586038662912,0.1801413961337088,0.3547195632207428,2046.7498919661264,5862.149046102135
2.5675868055555555,884.4174290033768,883.9031218506017,0.2419280776738827,0.3140089169958692,0.17999108300413083,0.35471956322074594,2046.4862663697354,5865.373332322469
2.5712031250000003,884.6641727173555,884.1485422071353,0.24234622720378798,0.31416020410159357,0.17983979589840646,0.3547195632207492,2046.2209325723163,5868.595224641132
2.574819444444445,884.9118690535439,884.3949076850075,0.24276708552536536,0.3143124712520693,0.1796875287479307,0.35471956322075243,2045.9538799304903,5871.814732896138
2.5784357638888893,885.1605240568122,884.6422242866939,0.2431906695142904,0.3144657245529403,0.17953427544705972,0.35471956322075576,2045.685097735918,5875.03186692772
2.5820520833333336,885.4101438140774,884.8904980565428,0.2436169961491039,0.3146199701470672,0.17938002985293278,0.35471956322075904,2045.4145752149873,5878.246636578566
2.5856684027777783,885.6607344545847,885.1397350810571,0.24404608251170262,0.31477521421470506,0.17922478578529494,0.3547195632207624,2045.1423015285027,5881.459051694049
2.5892847222222226,885.9123021501897,885.389941489178,0.24447794578782855,0.31493146297368013,0.17906853702631986,0.35471956322076575,2044.8682657713748,5884.669122122463
2.592901041666667,886.1648531156417,885.6411234525701,0.2449126032675575,0.315088722679567,0.17891127732043302,0.3547195632207692,2044.592456972309,5887.876857715255
2.596517361111111,886.4183936088691,885.8932871859067,0.24535007234578612,0.31524699962586433,0.17875300037413566,0.35471956322077264,2044.314864093498,5891.082268327264
2.6001336805555555,886.672929931265,886.1464389471579,0.24579037052271738,0.31540630014417104,0.17859369985582896,0.3547195632207761,2044.0354760303135,5894.28536381695
2.6037500000000002,886.9284684279746,886.400585037878,0.24623351540434477,0.315566630604361,0.17843336939563897,0.3547195632207796,2043.7542816109974,5897.4861540466345
2.6073663194444445,887.1850154881834,886.6557318034967,0.2466795247029347,0.315727997414758,0.17827200258524203,0.35471956322078313,2043.4712695963578,5900.684648882732
2.610982638888889,887.4425775454066,886.9118856336084,0.24712841623750748,0.3158904070223092,0.1781095929776908,0.3547195632207867,2043.1864286794628,5903.880858195993
2.6145989583333336,887.7011610777803,887.1690529622663,0.24758020793431612,0.316053865912759,0.177946134087241,0.3547195632207903,2042.8997474853363,5907.074791861731
2.6182152777777783,887.9607726083526,887.4272402682737,0.24803491782732315,0.3162183806108212,0.17778161938917877,0.3547195632207939,2042.6112145706566,5910.266459760069
2.6218315972222226,888.2214187053768,887.6864540754804,0.24849256405867567,0.3163839576803509,0.1776160423196491,0.35471956322079756,2042.3208184234534,5913.45587177617
2.625447916666667,888.4831059826051,887.9467009530769,0.24895316487917815,0.31655060372451554,0.17744939627548442,0.3547195632208013,2042.0285474628095,5916.643037800483
2.6290642361111116,888.7458410995838,888.2079875158922,0.24941673864876265,0.3167183253859652,0.17728167461403477,0.354719563220805,2041.7343900385608,5919.827967728976
2.632680555555556,889.0096307619488,888.4703204246916,0.24988330383695662,0.3168871293470017,0.17711287065299833,0.3547195632208088,2041.4383344310008,5923.010671463372
2.636296875,889.2744817217227,888.7337063864752,0.2503528790233485,0.317057022329747,0.17694297767025305,0.35471956322081255,2041.1403688505843,5926.191158911399
2.6399131944444445,889.5404007776132,888.9981521547785,0.2508254828980503,0.3172280110963106,0.1767719889036894,0.35471956322081644,2040.8404814376343,5929.369439987021
2.643529513888889,889.8073947753107,889.2636645299735,0.25130113426215706,0.3174001024489561,0.1765998975510439,0.35471956322082027,2040.5386602620501,5932.545524610682
2.6471458333333335,890.0754706077893,889.5302503595707,0.251779852028204,0.31757330323026606,0.17642669676973394,0.3547195632208242,2040.2348933230176,5935.71942270955
2.650762152777778,890.3446352156056,889.7979165385223,0.25226165522061983,0.3177476203233064,0.17625237967669363,0.35471956322082815,2039.9291685487215,5938.89114421775
2.654378472222222,890.6148955872019,890.0666700095265,0.25274656297617715,0.31792306065178905,0.17607693934821095,0.3547195632208321,2039.6214737960595,5942.060699076616
2.657994791666667,890.8862587592065,890.3365177633325,0.2532345945444393,0.31809963118023404,0.17590036881976595,0.35471956322083614,2039.3117968503584,5945.228097234931
