z,T,t,fs,x,y,w,rhob,p
0.0,556.2444776692331,298.0,0.0,0.22647911942101928,0.2675208805789807,0.3547194317942643,2200.0,2040.0
0.0017895189003436429,572.8285082660653,336.2122823178185,3.373649498113045e-07,0.2264792414801469,0.26752075851985313,0.3547194317942643,2199.999785927481,2043.6945506968416
0.0035790378006872858,587.9561117605834,370.8350817806333,1.2471144983732709e-06,0.2264795706288516,0.2675204293711484,0.3547194317942643,2199.999208652403,2047.5531987655825
0.0071580756013745715,614.4372001927088,430.9312548156286,6.498713042743975e-06,0.2264814706648134,0.26751852933518666,0.3547194317942643,2199.995876288058,2055.7092573032646
0.010737113402061857,636.6926817823921,480.95753197427314,1.9258988311914123e-05,0.22648608735089262,0.2675139126491074,0.3547194317942643,2199.9877793465307,2064.3708956615537
0.014316151202749143,655.493459168091,522.8907278081917,4.233058682935192e-05,0.22649443468866196,0.26750556531133807,0.3547194317942643,2199.9731394284886,2073.4550787000344
0.021474226804123715,685.0192762623526,588.1573091135679,0.0001251054048529969,0.22652438273774567,0.26747561726225433,0.3547194317942643,2199.9206152589604,2092.618472390254
0.028632302405498286,706.5313747141817,635.2578430845263,0.0002579104776103633,0.22657243180547498,0.26742756819452496,0.3547194317942643,2199.83634474865,2112.7495863356785
0.03579037800687286,722.3504417634213,669.6366316442129,0.0004361789170420121,0.22663692958513362,0.26736307041486634,0.3547194317942643,2199.7232257837545,2133.522002572848
0.04294845360824743,734.064051876441,694.9329523503588,0.0006530370084279407,0.22671538915677736,0.2672846108432227,0.3547194317942643,2199.585620030852,2154.698781914153
0.053685567010309285,746.2821338158004,721.1296377624078,0.0010360563857566413,0.22685396612240674,0.2671460338775932,0.3547194317942643,2199.342577820821,2186.8596272048876
0.06442268041237115,754.2137223076182,737.9748959850428,0.0014718538804029695,0.22701163828734572,0.26698836171265433,0.3547194317942643,2199.0660456334326,2219.161298076567
0.075159793814433,759.4163408392627,748.8937150796852,0.0019466065133303294,0.22718340447775232,0.26681659552224773,0.3547194317942643,2198.764794741299,2251.363682224358
0.08589690721649486,762.8704997781928,756.0259580808179,0.002450717034575169,0.22736579239468535,0.26663420760531464,0.35471943179426435,2198.4449150108326,2283.3225211393774
0.09663402061855672,765.2002610336971,760.7270224642571,0.00297766535835715,0.22755644306166334,0.26644355693833666,0.35471943179426435,2198.1105437158926,2314.9535923749545
0.10737113402061857,766.8055153359757,763.8627607675595,0.0035230696580080684,0.2277537711274494,0.2662462288725506,0.35471943179426435,2197.764461313294,2346.2102109601497
0.11810824742268043,767.9435622453483,765.9891925180657,0.004084002019875467,0.2279567172686422,0.2660432827313578,0.3547194317942644,2197.4085256897315,2377.0690618275144
0.1288453608247423,768.7803539157312,767.4644913283868,0.004658511991107874,0.22816457580857424,0.26583542419142575,0.3547194317942644,2197.043974491128,2407.5212686656373
0.13958247422680414,769.4230666749344,768.5197942217561,0.0052453020790581995,0.22837687731252607,0.26562312268747396,0.35471943179426446,2196.6716310321767,2437.566764781125
0.150319587628866,769.9409604179502,769.3043947769869,0.0058435093535598405,0.22859330957111315,0.26540669042888687,0.35471943179426446,2196.2920428790508,2467.2107502979543
0.16105670103092784,770.378799820019,769.9147570725283,0.006452559492410799,0.2288136647937308,0.26518633520626916,0.35471943179426446,2195.9055744638017,2496.461468917453
0.17179381443298972,770.7655139251012,770.4132096128227,0.007072069679116306,0.22903780447681654,0.26496219552318345,0.3547194317942645,2195.5124686999,2525.328819434218
0.1825309278350516,771.1197922776134,770.840015238966,0.007701784198618165,0.22926563610229192,0.26473436389770816,0.3547194317942645,2195.112887849511,2553.823495026261
0.19326804123711344,771.4537041725945,771.2211729077213,0.008341531812257202,0.2294970977157618,0.2645029022842382,0.3547194317942646,2194.7069405709017,2581.956455780906
0.21474226804123714,772.0888042076466,771.9076642409792,0.009650704644694337,0.22997075834324468,0.26402924165675534,0.35471943179426463,2193.8762143013137,2637.180637047455
0.23621649484536086,772.7055418824832,772.5474764898643,0.010999051199010451,0.2304585920800575,0.26354140791994246,0.3547194317942647,2193.0206306263194,2691.0852257907104
0.2576907216494846,773.3183111254923,773.1715926573917,0.012386335724729906,0.2309605136313368,0.2630394863686632,0.3547194317942648,2192.1403391396993,2743.7480730786224
0.2791649484536083,773.9330968242147,773.7928745278191,0.01381246782451117,0.2314764902911933,0.26252350970880667,0.35471943179426485,2191.2353972024407,2795.2404620327884
0.300639175257732,774.5523949439491,774.4166621768604,0.015277434910647503,0.23200651750537654,0.2619934824946235,0.3547194317942649,2190.3058128019834,2845.6274178095273
0.3221134020618557,775.1772588112777,775.045182858978,0.01678127214030836,0.2325506079938013,0.2614493920061987,0.354719431794265,2189.351563629597,2894.9682769782266
0.34358762886597943,775.8081478677793,775.6793800394321,0.01832404858012628,0.2331087867448754,0.2608912132551246,0.35471943179426507,2188.372605859542,2943.3172935671373
0.3650618556701032,776.4452787238805,776.3196700929228,0.01990586043181457,0.233681088564518,0.260318911435482,0.3547194317942652,2187.3688784477094,2990.7242041625823
0.3865360824742269,777.0887699293186,776.9662544803972,0.021526827370878427,0.2342675567515003,0.2597324432484997,0.3547194317942653,2186.3403054548617,3037.2347305183953
0.4080103092783506,777.7387014832956,777.61924816198,0.02318709029777821,0.234868242283813,0.25913175771618707,0.3547194317942654,2185.286797473618,3082.8910188022387
0.4294845360824743,778.3951392064325,778.2787322551206,0.0248868097655111,0.23548320324976305,0.25851679675023703,0.3547194317942655,2184.2082526262216,3127.732021419321
0.450958762886598,779.058144674993,778.9447755530504,0.026626164760951743,0.236112504407061,0.25788749559293894,0.3547194317942656,2183.104557337829,3171.79382890955
0.4724329896907217,779.7277792425318,779.6174432811788,0.028405351694569172,0.2367562168172992,0.25724378318270086,0.35471943179426574,2181.97558697758,3215.1099591024245
0.4939072164948455,780.4041056497765,780.2968006400852,0.03022458352954897,0.23741441753086662,0.2565855824691334,0.35471943179426585,2180.821206411207,3257.7116098438987
0.5153814432989692,781.0871886560166,780.9829142268233,0.03208408901471994,0.23808718930942097,0.255912810690579,0.354719431794266,2179.641270487774,3299.627880664077
0.5368556701030929,781.7770952769283,781.6758525970754,0.033984112000662474,0.23877462037845557,0.25522537962154446,0.3547194317942661,2178.4356244736364,3340.8859678954273
0.5583298969072166,782.4738948667006,782.3756864821172,0.03592491082544656,0.23947680420505832,0.25452319579494165,0.3547194317942663,2177.204104442219,3381.511337017857
0.5798041237113403,783.1776591408228,783.082488869113,0.037906757760068424,0.2401938392972702,0.25380616070272977,0.35471943179426646,2175.946537625904,3421.5278753963576
0.601278350515464,783.8884621784483,783.796335029028,0.03992993850572491,0.2409258290221981,0.2530741709778019,0.3547194317942666,2174.6627427350386,3460.958028072713
0.6227525773195877,784.6063804201227,784.5173025261142,0.041994751736400784,0.24167288144052246,0.25232711855947754,0.3547194317942668,2173.352530248179,3499.822918857256
0.6442268041237115,785.3314926675895,785.2454712226782,0.04410150868120036,0.24243510915538408,0.2515648908446159,0.35471943179426696,2172.0157026771203,3538.142458623427
0.6657010309278352,786.0638800891725,785.980923284849,0.04625053274159619,0.2432126291739043,0.2507873708260957,0.3547194317942672,2170.6520548097683,3575.9354424236144
0.6871752577319589,786.8036262336685,786.7237431921192,0.04844215913936871,0.24400556277980892,0.24999443722019107,0.35471943179426735,2169.261373933536,3613.2196368083573
0.7086494845360826,787.5508170567192,787.47401775271,0.05067673459151635,0.2448140354158103,0.2491859645841897,0.35471943179426757,2167.8434400416286,3650.011858533609
0.7301237113402063,788.3055409662079,788.2318361272862,0.05295461700885256,0.24563817657455927,0.24836182342544072,0.3547194317942678,2166.398026024297,3686.3280456754296
0.7515979381443301,789.0678888980306,788.9972898650165,0.05527617521539536,0.2464781196971199,0.24752188030288008,0.354719431794268,2164.9248978468936,3722.1833220325902
0.7730721649484538,789.8379544421969,789.7704729588079,0.05764178868601944,0.2473340020780517,0.24666599792194832,0.3547194317942683,2163.4238147163487,3757.5920555806165
0.7945463917525775,790.6158340545286,790.5514819315296,0.06005184730021019,0.24820596477631718,0.24579403522368282,0.35471943179426857,2161.894529237418,3792.5679116425076
0.8160206185567012,791.4016274166872,791.3404159738242,0.06250675111017352,0.2490941525313842,0.2449058474686158,0.3547194317942688,2160.336787559833,3827.1239013591958
0.8374948453608249,792.1954380568586,792.137377169584,0.06500691012208908,0.24999871368408244,0.24400128631591755,0.3547194317942691,2158.7503295171005,3861.2724259753
0.8589690721649486,792.9973744337448,792.9424708726973,0.06755274409006536,0.25091980010205656,0.24308019989794347,0.3547194317942694,2157.13488875725,3895.0253174027316
0.8804432989690723,793.8075518522436,793.7558063479615,0.0701446823235851,0.25185756711009927,0.24214243288990067,0.35471943179426974,2155.4901928650143,3928.393875487849
0.9019175257731961,794.6260958856773,794.5774978781567,0.07278316351131053,0.25281217342640433,0.2411878265735957,0.35471943179427007,2153.8159634736376,3961.388902391894
0.9233917525773198,795.4531485501275,795.4076667018081,0.07546863556778796,0.25378378110710337,0.24021621889289665,0.3547194317942704,2152.111916362143,3994.02073450967
0.9448659793814435,796.2888795456331,796.2464444461779,0.0782015555162181,0.2547725555038526,0.23922744449614744,0.35471943179427073,2150.377761529723,4026.2992724180667
0.9663402061855672,797.1335068904666,797.0939792819419,0.08098238943265794,0.25577866524364457,0.2382213347563554,0.3547194317942711,2148.6132032311457,4058.2340095031022
0.9878144329896908,797.9873350615092,797.9504471003964,0.08381161249987523,0.2568022822482932,0.23719771775170675,0.3547194317942715,2146.8179399425794,4089.8340602353765
1.0092886597938147,798.8508258408799,798.8160721308558,0.0866897092627835,0.2578435818268503,0.23615641817314975,0.35471943179427196,2144.9916641995096,4121.108189686289
1.0307628865979384,799.7247300859398,799.6911657732803,0.08961717426335815,0.2589027429053188,0.2350972570946812,0.3547194317942724,2143.1340621938593,4152.064847049465
1.052237113402062,800.6103314812692,800.5762019323834,0.09259451340893222,0.2599799485217049,0.2340200514782951,0.35471943179427284,2141.244812905744,4182.712208075366
1.0737113402061857,801.5098892620726,801.4719692538029,0.0956222468076429,0.26107538685188614,0.23292461314811386,0.35471943179427334,2139.3235863042587,4213.058235056243
1.0951855670103094,802.4274080699986,802.3798939408406,0.09870091467126745,0.26218925334526616,0.2318107466547338,0.35471943179427384,2137.3700396018803,4243.110768817801
1.1166597938144331,803.3698540848735,803.3027480463534,0.10183108990909738,0.2633217552812567,0.23067824471874326,0.3547194317942744,2135.3838092631104,4272.877673936181
1.1309759450171823,804.0174362363108,803.9288648283056,0.10394679730067034,0.26408722128072804,0.229912778719272,0.35471943179427473,2134.041302249983,4292.5675805244455
1.1452920962199313,804.6858328796619,804.5669009012131,0.10608588856452734,0.2648611475990698,0.2291388524009302,0.3547194317942751,2132.683957167726,4312.136654498145
1.1596082474226805,805.3808049973051,805.2212940844989,0.10824861074187156,0.26564362361614735,0.22835637638385267,0.35471943179427556,2131.3116172581076,4331.587560555255
1.1739243986254297,806.1085798718309,805.8982965560108,0.1104352614276799,0.2664347570022544,0.2275652429977456,0.35471943179427595,2129.9240936843617,4350.923132816783
1.1882405498281787,806.8748528468199,806.6056396498041,0.1126462056705895,0.2672346798325167,0.22676532016748327,0.3547194317942764,2128.521154807482,4370.146369710593
1.202556701030928,807.6835743737785,807.3512667814243,0.11488188635071414,0.2680435523416012,0.2259564476583988,0.35471943179427684,2127.1025196010564,4389.260385654906
1.2168728522336771,808.5360389622259,808.1414192666714,0.11714281987028623,0.2688615613645836,0.22513843863541638,0.3547194317942773,2125.6678603857376,4408.268322643227
1.2311890034364263,809.4307261161183,808.979017126576,0.11942957436809364,0.26968891245490056,0.22431108754509946,0.3547194317942778,2124.2168166531146,4427.173244149699
1.2455051546391755,810.363923696262,809.863201611572,0.12174273651584176,0.270525817871225,0.22347418212877504,0.3547194317942783,2122.749016134848,4445.978042260144
1.2598213058419248,811.3307590570597,810.7901070338908,0.12408287787511779,0.2713724844053671,0.22262751559463284,0.3547194317942788,2121.2640961506145,4464.685380327792
1.2741374570446737,812.3261831857902,811.7542410552625,0.12645052933179635,0.27222910413260576,0.2217708958673943,0.35471943179427934,2119.7617198305757,4483.297675993131
1.288453608247423,813.3456420651934,812.749785687522,0.1288461656883845,0.2730958488371755,0.22090415116282444,0.35471943179427995,2118.2415858921904,4501.817115523764
1.302769759450172,814.3853959602629,813.771462737406,0.13127019695209177,0.27397286686027916,0.22002713313972083,0.3547194317942805,2116.7034341683143,4520.245685502151
1.3170859106529214,815.4425743048257,814.8149356406765,0.1337229599351418,0.27486028006106694,0.21913971993893303,0.35471943179428117,2115.147050937155,4538.585209789492
1.3314020618556703,816.515079656661,815.8768776380144,0.13620470235597712,0.27575817806443037,0.21824182193556962,0.35471943179428184,2113.572279010746,4556.837384116461
1.3457182130584195,817.6014284412593,816.9548558564578,0.13871554969687983,0.2766666062700408,0.2173333937299592,0.3547194317942825,2111.9790387651997,4575.003804686712
1.3600343642611685,818.7005790330895,818.0471403487243,0.14125544071763804,0.27758554252110096,0.21641445747889906,0.3547194317942833,2110.3673690600563,4593.085989798981
1.3743505154639177,819.8117668185004,819.1524979143197,0.14382400871921183,0.2785148541453668,0.2154851458546332,0.35471943179428406,2108.7375025815722,4611.085394749124
1.3886666666666667,820.9343440986398,820.2699918430278,0.146420369664962,0.2794542212971017,0.2145457787028984,0.35471943179428483,2107.090000288881,4629.003420543254
1.4029828178694161,822.0676067492617,821.3987819964414,0.1490427513466833,0.2804030027888091,0.21359699721119085,0.35471943179428567,2105.425986724043,4646.841416563648
1.4172989690721651,823.2105751158338,822.5379001211371,0.15168785633881748,0.28136000560714514,0.21263999439285491,0.35471943179428655,2103.7475542448915,4664.600676443463
1.4316151202749143,824.3616814561288,823.685958511315,0.154349798421968,0.28232310010940415,0.21167689989059596,0.3547194317942875,2102.0584379099005,4682.282425054323
1.4459312714776633,825.518305444536,824.8407372378251,0.1570184177217527,0.283288610438315,0.21071138956168498,0.3547194317942885,2100.3650845947886,4699.88779274645
1.4602474226804125,826.6761175579734,825.9986025090234,0.1596768725470104,0.28425044324561594,0.209749556754384,0.35471943179428955,2098.6781810743846,4717.417771315909
1.4745635738831615,827.8283006603507,827.1537839189641,0.1622988837752344,0.2851990907067112,0.20880090929328876,0.3547194317942906,2097.0144025781665,4734.873146535674
1.488879725085911,828.9650089334266,828.2977570764015,0.1648471881709231,0.28612107092900996,0.20787892907099004,0.3547194317942918,2095.397394226056,4752.254408999576
1.50319587628866,830.0738223207337,829.4193266440564,0.16727624065663962,0.2869999056375106,0.20700009436248948,0.354719431794293,2093.8560563216197,4769.5616638918245
1.5175120274914091,831.1419013789961,830.5061025674871,0.1695415531765346,0.28781949898915327,0.20618050101084678,0.3547194317942942,2092.418618442924,4786.794586311652
1.5318281786941583,832.1593363399751,831.5472773411957,0.1716126965815446,0.28856884167372154,0.20543115832627845,0.35471943179429555,2091.1043891891563,4803.952473203933
1.5461443298969075,833.121688806778,832.5362950003362,0.17348145049929983,0.28924495954858265,0.20475504045141735,0.3547194317942969,2089.9185847388867,4821.034396957064
1.5604604810996567,834.0301613688401,833.4718412528462,0.17515987498856037,0.28985221596046823,0.2041477840395317,0.3547194317942983,2088.8535524679733,4838.039400277637
1.574776632302406,834.8898737140277,834.3569719486823,0.17667191141906943,0.2903992729316374,0.20360072706836255,0.3547194317942998,2087.894100551254,4854.966656027975
1.589092783505155,835.707746505533,835.1973774613072,0.17804507664155247,0.29089608609854845,0.20310391390145155,0.3547194317943014,2087.0227683676503,4871.815556000955
1.603408934707904,836.4909479311079,835.9997648802989,0.17930538819142258,0.2913520686432076,0.20264793135679238,0.35471943179430293,2086.2230466759056,4888.585736357545
1.6177250859106531,837.246057471039,836.7707702727424,0.18047527576036076,0.29177533566056085,0.20222466433943914,0.3547194317943046,2085.4807028753758,4905.277064180544
1.6320412371134023,837.9787446471313,837.5163903936053,0.18157322683999683,0.29217257595186413,0.20182742404813586,0.3547194317943063,2084.7840058603,4921.88960661995
1.6463573883161515,838.6937326560524,838.241773943914,0.18261417925897885,0.2925491940451641,0.20145080595483592,0.3547194317943081,2084.1234769382095,4938.423595828963
1.6606735395189005,839.3948900135391,838.9512154649996,0.1836101282162401,0.29290952982081314,0.2010904701791869,0.3547194317943099,2083.4915046413003,4954.879396155622
1.6749896907216497,840.0853636356107,839.6482430834297,0.18457071898135077,0.29325707295131564,0.20074292704868432,0.3547194317943118,2082.8819686326624,4971.2574760207735
1.689305841924399,840.7677121413158,840.3357370900187,0.18550374923631086,0.2935946446493165,0.20040535535068346,0.35471943179431376,2082.2899209488787,4987.55838487925
1.703621993127148,841.4440229633797,841.0160477414141,0.1864155699676649,0.29392454271094864,0.20007545728905135,0.3547194317943158,2081.711331616804,5003.782734791319
1.717938144329897,842.1160089971146,841.6910990447129,0.18731139686574175,0.2942486541805294,0.19975134581947063,0.35471943179431786,2081.1428910573927,5019.931185854529
1.7322542955326463,842.7850858050351,842.3624748519762,0.18819554962633786,0.2945685419302563,0.19943145806974372,0.35471943179432003,2080.581858238533,5036.004434738525
1.7465704467353955,843.4524322689862,843.0314879962393,0.18907163549390743,0.2948855110663989,0.1991144889336011,0.35471943179432225,2080.025944209023,5052.0032056614045
1.7608865979381445,844.1190378963303,843.6992348645769,0.18994269047659168,0.2952006600211013,0.19879933997889868,0.3547194317943245,2079.473222491582,5067.9282432679065
1.7752027491408937,844.7857396734508,844.3666381430289,0.19081128865748057,0.29551492010135466,0.19848507989864533,0.35471943179432686,2078.9220597201715,5083.780306984401
1.7895189003436431,845.4532508611225,845.0344802451177,0.19167962749599626,0.2958290863511616,0.19817091364883835,0.3547194317943293,2078.371061512612,5099.560166522274
1.8038350515463921,846.1221837470762,845.7034295992735,0.19254959556479878,0.2961438420588467,0.1978561579411533,0.3547194317943318,2077.819029488611,5115.268598279156
1.8181512027491413,846.7930715309361,846.3740637513322,0.19342284361156029,0.2964597844673092,0.1975402155326908,0.3547194317943344,2077.264916178024,5130.906382474718
1.8324673539518903,847.4664972047631,847.0469563739612,0.1943013353284056,0.29677762404320496,0.1972223759567951,0.35471943179433707,2076.7074755340414,5146.474301707956
1.8467835051546395,848.1451986755278,847.724053662999,0.1951964481277489,0.29710147715082863,0.1968985228491714,0.3547194317943398,2076.1394881008805,5161.973162116593
1.8485730240549831,848.2307830151744,847.809265346001,0.19531103411461306,0.297142934526886,0.19685706547311402,0.3547194317943402,2076.0667783813874,5163.905709178375
1.8503625429553268,848.3161241209906,847.8944056610212,0.1954242567780823,0.2971838986505638,0.19681610134943614,0.3547194317943405,2075.994933749016,5165.837193308467
1.8521520618556704,848.3996648832847,847.9786268054326,0.19552890521117558,0.2972217606052695,0.1967782393947305,0.35471943179434084,2075.928529833285,5167.767612611676
1.8530468213058422,848.4398693042945,848.0198872964385,0.19557394676129558,0.2972380567033581,0.19676194329664184,0.354719431794341,2075.8999490393826,5168.73242012909
1.853941580756014,848.4788176260097,848.0604271735211,0.19561325994360135,0.29725228026967243,0.19674771973032756,0.35471943179434123,2075.875003140359,5169.696956903523
1.8557310996563576,848.5540377614897,848.1397832895377,0.19568019990575775,0.29727649924496174,0.19672350075503825,0.35471943179434157,2075.832526865515,5171.625211070602
1.8575206185567013,848.6276076167951,848.2177359199852,0.19574086584772019,0.29729844827065516,0.1967015517293448,0.3547194317943419,2075.7940317253706,5173.552366474776
1.8610996563573885,848.7732118674342,848.3712230567188,0.1958593830433859,0.297341327963752,0.19665867203624798,0.3547194317943426,2075.7188274854125,5177.403373746513
1.8682577319587632,849.0616867738629,848.6715003460238,0.19609778769515593,0.29742758311215756,0.19657241688784247,0.35471943179434406,2075.5675495165224,5185.092182814884
1.875415807560138,849.3479138057645,848.9655744598413,0.19633895111022912,0.29751483638512294,0.19648516361487706,0.35471943179434556,2075.414520994084,5192.763424895768
1.889731958762887,849.9173832803103,849.5434681738476,0.19682918701127772,0.2976922044443647,0.1963077955556353,0.35471943179434856,2075.103445304758,5208.053473809133
1.9112061855670106,850.7720057413363,850.4017379614968,0.19758478385006528,0.2979655804753291,0.19603441952467088,0.3547194317943532,2074.623986727826,5230.8586941063195
1.9326804123711343,851.6331435113057,851.2623713526016,0.19836604012876152,0.2982482401288273,0.1957517598711727,0.35471943179435805,2074.128246136581,5253.510298179904
1.9756288659793817,853.3846912240354,853.0094561792286,0.20001232806949465,0.298843869490888,0.19515613050911204,0.3547194317943683,2073.0836058829886,5298.363067065081
1.9971030927835054,854.2771953982312,853.8991744867255,0.2008808338336159,0.2991580961346178,0.1948419038653822,0.3547194317943738,2072.532501753978,5320.569440720943
2.0185773195876293,855.1817460694692,854.800741722884,0.20178191328465345,0.29948410798546593,0.19451589201453406,0.35471943179437954,2071.9607282246034,5342.6325667887
2.0400515463917532,856.0989376682165,855.7147847141082,0.20271732418439564,0.2998225410041939,0.19417745899580602,0.3547194317943855,2071.367169919679,5364.554970929759
2.0615257731958767,857.0293518515983,856.6418955065125,0.20368883379956318,0.3001740345904618,0.19382596540953817,0.3547194317943917,2070.750705432729,5386.339143498171
2.083,857.9735709977841,857.5826596289256,0.20469822211324107,0.3005392327447285,0.19346076725527156,0.3547194317943982,2070.1102052882006,5407.98754046525
2.104474226804124,858.932183388069,858.5376659807935,0.20574728547353172,0.3009187853883399,0.19308121461166014,0.35471943179440496,2069.4445296262384,5429.502584649355
2.125948453608248,859.9057857906868,859.5075109025595,0.20683784055113125,0.3013133497953858,0.19268665020461417,0.354719431794412,2068.7525256914264,5450.886667040361
2.1474226804123715,860.8949852803055,860.4928004543666,0.20797172857543936,0.3017235921253307,0.19227640787466937,0.35471943179441934,2068.033025144802,5472.142148154874
2.190371134020619,862.9226651938047,862.5121968175415,0.2103770184037835,0.30259382946995245,0.19140617053004752,0.3547194317944351,2066.5067656648675,5514.276604452244
2.2333195876288663,865.020348679673,864.6009638116221,0.21297855259059567,0.30353506830778204,0.19046493169221798,0.35471943179445226,2064.855980729013,5555.9242804817095
2.2762680412371137,867.1934347154837,866.7644767276844,0.2157924314189244,0.3045531337445519,0.18944686625544807,0.3547194317944711,2063.070454017632,5597.103104338802
2.2977422680412376,868.3100301258291,867.8760300471491,0.2172842648079141,0.305092881226021,0.18890711877397903,0.3547194317944811,2062.123821796601,5617.522201413487
2.319216494845361,869.4476547847586,869.008436431984,0.2188356257086878,0.30565416584749544,0.18834583415250458,0.35471943179449167,2061.139416818164,5637.830651000251
2.3406907216494846,870.6070871489059,870.1624694498399,0.22044879929979835,0.3062378143898864,0.18776218561011362,0.3547194317945027,2060.115789038594,5658.0306024617885
2.3621649484536085,871.789124251757,871.3389251400416,0.22212610182603712,0.30684466487391515,0.18715533512608484,0.35471943179451426,2059.0514687013015,5678.124189010887
2.405113402061856,874.2243325105843,873.7623890423368,0.2256827740841959,0.30813147404973795,0.18586852595026213,0.35471943179453913,2056.7946077246884,5718.000723429833
2.4480618556701033,876.7605260588246,876.2860051096133,0.2295267576776224,0.30952223288290975,0.1844777671170903,0.3547194317945665,2054.355435392505,5757.477053823202
2.491010309278351,879.4053704961518,878.9173999233981,0.23368005316478324,0.3110249012073575,0.18297509879264245,0.3547194317945967,2051.7199914075236,5796.569824858291
2.5339587628865985,882.1671749147705,881.6648223130759,0.2381663644614029,0.3126480551341319,0.18135194486586806,0.3547194317946301,2048.873234619334,5835.295571887619
2.576907216494846,885.0549618306552,884.5372290422271,0.2430112136849232,0.3144009286022989,0.17959907139770107,0.3547194317946672,2045.7989701506156,5873.670773627588
2.6198556701030933,888.0785293289384,887.5443486568348,0.24824205802385668,0.31629345566244144,0.1777065443375586,0.35471943179470844,2042.479775238519,5911.711905841075
2.6413298969072168,889.6445206425773,889.1016929589084,0.25101136664862295,0.31729539553498626,0.1767046044650137,0.3547194317947308,2040.7225302314496,5930.612357206276
2.6628041237113407,891.2485158128807,890.6967465757101,0.25388840637028126,0.31833631267446444,0.17566368732553553,0.3547194317947544,2038.8969252263548,5949.43549605024
2.6842783505154646,892.8919870864036,892.3309721530018,0.2568772049190152,0.3194176643194915,0.17458233568050852,0.3547194317947794,2037.000404455817,5968.183405526388
2.705752577319588,894.5764678835895,894.0058933595386,0.2599819320522522,0.32054095909434566,0.17345904090565437,0.3547194317948058,2035.0303220300439,5986.858179061126
2.7272268041237115,896.3035550464989,895.7230971747941,0.26320690263345947,0.32170775812288055,0.1722922418771195,0.35471943179483373,2032.9839399832429,6005.4619221718085
2.7487010309278355,898.0750637093149,897.4842362128204,0.2665572165948792,0.3229196758884536,0.17108032411154642,0.35471966247437975,2030.858022189838,6023.996754034664
2.7701752577319594,899.9022702658442,899.2951996844293,0.2700693855947225,0.3241783763423506,0.16982162365764938,0.35473166985299626,2028.6294004379088,6042.46492423874
2.791649484536083,901.8006722157945,901.1717479027113,0.2737786537131359,0.32548561375802365,0.16851438624197645,0.35476645101648924,2026.2757108481417,6060.869155264407
2.8131237113402063,903.7777613425599,903.1241055011778,0.2776972739922087,0.32684328186002237,0.16715671813997765,0.3548265454086888,2023.789178340201,6079.212468810993
2.8345979381443303,905.839816425396,905.15920711597,0.28183861052217785,0.32825337380502073,0.16574662619497926,0.3549147950201306,2021.1613228260844,6097.498046645671
2.856072164948454,907.9931303712302,907.2834174858781,0.2862170988378753,0.32971796292958133,0.1642820370704187,0.3550343493116681,2018.382984340275,6115.729211673399
2.8775463917525776,910.2443693297344,909.5033252284256,0.29084828185634876,0.33123919228048576,0.16276080771951418,0.35518868868642584,2015.4443002357814,6133.9094321552975
2.899020618556701,912.6006512465093,911.8259929545744,0.29574883898927,0.33281925466620543,0.16118074533379453,0.3553816549712402,2012.3346867110656,6152.04233216431
2.920494845360825,915.069419576023,914.2590451702986,0.30093650939297595,0.3344603308135816,0.1595396691864184,0.3556174854917327,2009.0428875111827,6170.131701293604
2.934810996563574,916.781344489876,915.9464276612633,0.30456352511995766,0.3355892696636957,0.15841073033630435,0.35580080618639875,2006.7413905888818,6182.169043477716
2.949127147766323,918.5481571892169,917.6890602756242,0.3083315710051275,0.3367466192417803,0.1572533807582197,0.3560067410686488,2004.3504039870606,6194.18999969491
2.9634432989690724,920.3703439003158,919.4895600207979,0.31224505815244097,0.3379323796834667,0.1560676203165333,0.3562368859466535,2001.8671286712124,6206.195786813503
2.977759450171822,922.2454078081315,921.3504698858593,0.3163059508361994,0.33914556288566133,0.1548544371143387,0.3564929396007943,1999.2903182251098,6218.187591238685
2.992075601374571,924.1637671898343,923.2736206951855,0.32051005634734275,0.3403828465732954,0.15361715342670462,0.3567767073779279,1996.622633102339,6230.1664706004685
3.00639175257732,926.1004782314418,925.2569082091366,0.32483941876947225,0.3416358311296014,0.15236416887039864,0.35709009241825435,1993.875467101394,6242.133131896025
3.0278659793814438,928.9195550087304,928.290758641381,0.33146929028178246,0.3435047721213042,0.15049522787869582,0.3576198485449495,1989.6685294894828,6260.059695927223
3.0386030927835055,930.2215458421366,929.7664559499918,0.3347868948982173,0.3444119851818906,0.1495880148181094,0.3579129496410779,1987.5633671772996,6269.010872694964
3.0493402061855677,931.4231907523857,931.151518595659,0.33808426898371297,0.34529274579413505,0.1487072542058649,0.35822518375014467,1985.4710420040205,6277.9522315995355
3.06007731958763,932.5298497771821,932.4191307889307,0.34136905081816693,0.3461500101606244,0.14784998983937558,0.35855635821029636,1983.3867071536954,6286.882279172545
3.0708144329896916,933.5637835632406,933.5749790267408,0.3446623387844021,0.3469917348559051,0.14700826514409487,0.35890614987245867,1981.296974798206,6295.799760719179
3.092288659793815,935.5192334446524,935.6629025366727,0.35136207978963285,0.34866100191507676,0.14533899808492323,0.35966085881544935,1977.04570199863,6313.594025912681
3.1137628865979385,937.4558083787537,937.6376465711604,0.35830912532937625,0.35034537782506053,0.1436546221749395,0.36048993404650514,1972.6375038731396,6331.332564947648
3.1352371134020625,939.4604891786076,939.6379185072083,0.36556306233789587,0.35206296100371093,0.14193703899628915,0.36139683578691667,1968.0345699582194,6349.0167427901115
3.1567113402061864,941.5728547654106,941.7279891746334,0.37315446586642786,0.3538196624905843,0.14018033750941578,0.3623867150949614,1963.2174990735,6366.649704700625
3.17818556701031,943.8132761222577,943.9375936095669,0.38110544982975275,0.35561741729790325,0.13838258270209677,0.3634656378048225,1958.172258992315,6384.235385118749
3.1996597938144333,946.1957713683558,946.2837834713753,0.3894364970254856,0.3574569975312062,0.13654300246879378,0.36464024251681393,1952.8858525017426,6401.778140007634
3.2211340206185572,948.7328037154401,948.7797953921023,0.39816831248165363,0.35933881443692584,0.13466118556307416,0.36591760909364035,1947.3451413741416,6419.282633702891
3.242608247422681,951.4368909289334,951.4381872144953,0.40732222416642055,0.36126311759484,0.13273688240516004,0.3673052044453051,1941.5365920996562,6436.753815337929
3.2640824742268046,954.3211020947086,954.2718514211194,0.41692018709091255,0.36323003082916994,0.13076996917083009,0.3688108481024204,1935.4462732827978,6454.196923955399
3.285556701030928,957.3991893556675,957.2943125758367,0.4269846636578197,0.3652395461297961,0.12876045387020388,0.37044267500494216,1929.059931566385,6471.617501898533
3.307030927835052,960.6855962739824,960.519790515269,0.4375384384968949,0.3672915061181399,0.12670849388186015,0.3722090860435037,1922.363109126356,6489.021409883668
3.328505154639176,964.1954127439855,963.9631782607546,0.44860437255938546,0.36938558198633464,0.12461441801366531,0.3741186811512534,1915.341299709389,6506.414841418926
3.3499793814432994,967.9442922828478,967.6399747010101,0.46020508885083766,0.37152124819171517,0.12247875180828482,0.3761801709070391,1907.980148048907,6523.804335392348
3.371453608247423,971.948331177455,971.5661785483469,0.4723625794521399,0.3736977539596738,0.12030224604032624,0.37840226285219547,1900.2656992270693,6541.196785861551
3.392927835051547,976.2239040079313,975.7581399882143,0.485097723149184,0.3759140914296574,0.11808590857034255,0.38079351882226004,1892.184704759422,6558.5994480033705
3.4144020618556707,980.7874485284661,980.2323633545519,0.49842970374709494,0.37816896029092206,0.11583103970907795,0.3833621798564644,1883.7249916994504,6576.019939022993
3.435876288659794,985.6551925827285,985.0052532831644,0.5123753209976073,0.3804607288385032,0.11353927116149681,0.38611595583428965,1874.8758998846897,6593.46623263869
3.4788247422680416,996.3650463725086,995.5101815561794,0.542157823093963,0.3851465224324509,0.10885347756754908,0.3922055146471815,1855.9776259116052,6628.469816165349
3.521773195876289,1008.4644633332023,1007.3882873635914,0.5744987607047448,0.3899500999724793,0.1040499000275207,0.3991029351897296,1835.4559149573806,6663.68034729183
3.5432474226804125,1015.0616123353504,1013.8707893726555,0.591619005846057,0.39238715331879476,0.10161284668120521,0.4028600113390583,1824.5923856904262,6681.386196173237
3.5647216494845364,1022.0319849825452,1020.7253996556927,0.6093515369673252,0.3948417864984026,0.09915821350159741,0.40682103360971217,1813.340334728362,6699.171636271938
3.5861958762886603,1029.376919163286,1027.9548551484586,0.6276687618616567,0.39730872894582075,0.0966912710541792,0.4109812896667443,1801.7172705089847,6717.046085765005
3.6076701030927842,1037.0929789059833,1035.5572978858215,0.6465322322050935,0.3997819993412678,0.09421800065873218,0.4153328501706248,1789.7475901416306,6735.018839013356
3.629144329896908,1045.171221894693,1043.5255131160175,0.6658917134215121,0.40225487143309424,0.09174512856690575,0.419864266430583,1777.463169617761,6753.0989297224205
3.6506185567010316,1053.5965175218037,1051.846206154558,0.6856844857759077,0.4047198514929396,0.0892801485070604,0.42456034008398696,1764.9038072972248,6771.294975875563
3.672092783505155,1062.3469563868555,1060.4993593077177,0.7058349498361095,0.4071686709999243,0.08683132900007566,0.42940198766762994,1752.11747425971,6789.615008362191
3.693567010309279,1071.393393804015,1069.4577136493558,0.7262546007569102,0.409592298210808,0.08440770178919199,0.4343662197435319,1739.1603306225652,6808.066286361751
3.715041237113403,1080.699167845349,1078.6864198355222,0.7468424198851297,0.41198097209541695,0.08201902790458303,0.43942624864679186,1726.0964770506046,6826.655103696984
3.7365154639175264,1090.2200266450293,1088.1428974275345,0.7674857097779523,0.4143242616630701,0.07967573833692995,0.44455173127000625,1712.9974249011843,6845.386591435511
3.75798969072165,1099.898009604853,1097.7711121494885,0.7880467100314904,0.4166095343434139,0.07739046565658612,0.449705458269817,1699.9505890545893,6864.278120998119
3.779463917525774,1109.6517250600625,1107.491595273625,0.8083439919486236,0.41882003864523565,0.07517996135476436,0.45483853997196777,1687.0710937946578,6883.379543040696
3.8009381443298977,1119.4141458766144,1117.237218564753,0.8282401422256748,0.42094449250789506,0.07305550749210492,0.45991254210474675,1674.446133751714,6902.695236516985
3.822412371134021,1129.116463501416,1126.9393638546699,0.8476002417825732,0.4229721462688217,0.07102785373117824,0.46488940041208604,1662.1613208643093,6922.22396146552
3.8438865979381447,1138.6871244926742,1136.526491022421,0.8662902396854627,0.42489250644532295,0.06910749355467709,0.46973110855459865,1650.301716195016,6941.962522686334
3.8653608247422686,1148.0530287582658,1145.925252587531,0.8841793462199802,0.42669553135174065,0.06730446864825934,0.47440038830979997,1638.9503114228703,6961.905703959827
3.8868350515463925,1157.140829637175,1155.0618155440989,0.901142263748123,0.42837183096281045,0.06562816903718957,0.4788612968359961,1628.1866132690836,6982.046239385997
3.908309278350516,1165.8782270156382,1163.8632070170422,0.9170611677766132,0.42991286553872354,0.06408713446127645,0.48307974480062577,1618.0853864242627,7002.374823794842
3.9297835051546395,1174.1951825877975,1172.2585963316524,0.931827359017786,0.43131113800084925,0.06268886199915077,0.487023901722561,1608.715605244971,7022.880161685758
3.9512577319587634,1182.0249919132734,1180.1804445499185,0.9453425163284549,0.43256037641722755,0.06143962358277248,0.4906644668017107,1600.139658710324,7043.549052078529
3.9727319587628873,1189.3051444804362,1187.5654542319571,0.9575194836104969,0.43365570552371707,0.06034429447628291,0.49397478209964535,1592.4128510998419,7064.366504558579
3.994206185567011,1195.9778911400756,1194.3552461578652,0.968282513361929,0.43459381071987097,0.05940618928012907,0.49693075666085246,1585.5832474498548,7085.315879492405
4.0049432989690725,1199.069793366017,1197.5101220159672,0.9731131634349098,0.4350033360537568,0.058996663946243255,0.498268967521934,1582.517992950688,7095.834425056969
4.015680412371134,1201.9904083366046,1200.4966697849363,0.9775668496679772,0.43537310593345835,0.05862689406654164,0.4995105477737804,1579.6919381635398,7106.379042711208
4.026417525773196,1204.7338362831963,1203.3090330503271,0.9816369855686593,0.43570322497249636,0.0582967750275036,0.5006530098003523,1577.109262500161,7116.9472576318485
4.037154639175259,1207.2943879776524,1205.9416214957919,0.9853174442759891,0.43599393537670367,0.058006064623296355,0.5016938946886423,1574.773853716416,7127.536520092785
4.044312714776633,1208.8970807767857,1207.5941437820172,0.987551726904533,0.4361660360884111,0.05783396391158889,0.5023301606689323,1573.3561056336353,7134.606429872637
4.051470790378008,1210.4143970673633,1209.1628188704078,0.9896085748368041,0.4363209507350117,0.05767904926498833,0.5029194165841535,1572.0509474699832,7141.683736634553
4.058628865979382,1211.844695035716,1210.6461062640424,0.9914863244013099,0.436458873910144,0.057541126089856044,0.5034608659219109,1570.8594348963231,7148.7676329268415
4.065786941580757,1213.1862972207164,1212.042462832421,0.9931832774909354,0.43658004199034595,0.05741995800965409,0.5039536579280518,1569.782645434395,7155.857297637407
4.072945017182131,1214.4374584169739,1213.350321013868,0.9946976527161575,0.43668473977617106,0.05731526022382888,0.5043968632927128,1568.8217094521958,7162.951895655952
4.080103092783506,1215.5963229746803,1214.5680609257345,0.9960275216361164,0.43677331006434833,0.05722668993565168,0.504789441506468,1567.9778506280995,7170.050577199888
4.090840206185568,1217.1570722899141,1216.2219289367015,0.9976715612640484,0.4368768597296805,0.05712314027031955,0.5052807077603781,1566.9346370253356,7180.704357964745
4.096208762886599,1217.855420789943,1216.9694160255108,0.99833337687254,0.4369159341724735,0.05708406582752654,0.5054810791635644,1566.5146866582218,7186.033029079741
4.10157731958763,1218.497567987324,1217.6627771551384,0.9988866559267557,0.43694692114888334,0.057053078851116615,0.505650269350551,1566.1636073863622,7191.362376997666
4.106945876288661,1219.0821845699832,1218.301047961211,0.9993298580602434,0.43697018920904646,0.05702981079095356,0.5057873524643876,1565.882376638287,7196.692009430006
4.112314432989692,1219.6077714785154,1218.8831984473734,0.9996612862828699,0.43698621532593196,0.0570137846740681,0.5058912375586158,1565.6720712269641,7202.021525175018
4.1176829896907226,1220.0727637183222,1219.4082198858378,0.9998794297568355,0.4369956601575014,0.05700433984249853,0.5059607173519695,1565.5336498437268,7207.350513223379
4.120367268041238,1220.282171844825,1219.649082111172,0.9999459688744162,0.43699821136360606,0.05700178863639398,0.5059822400950063,1565.4914279219454,7210.014678441016
4.123051546391753,1220.4763161826156,1219.8755573492278,0.9999849723508842,0.43699955473829694,0.05700044526170303,0.5059950082346091,1565.4666785445488,7212.678554256592
4.1242445589919825,1220.5578951265531,1219.971675389973,0.9999940418494409,0.4369998343470772,0.05700016565292283,0.5059980099835464,1565.460923559022,7213.862392709813
4.125437571592212,1220.6368291724764,1220.0650965952157,0.9999986896140648,0.43699996636192867,0.05700003363807129,0.5059995595366695,1565.457974353178,7215.046159680321
4.126232913325698,1220.6881746440376,1220.125944912282,0.9999998172472437,0.4369999956971692,0.05700000430283083,0.5059999381807468,1565.457258821599,7215.835296077974
4.126630584192441,1220.7135392029063,1220.155962724356,0.9999999767100626,0.436999999575906,0.05700000042409401,0.5059999919958889,1565.457157635606,7216.2298514442045
4.126829419625812,1220.7261613568573,1220.1708749183556,0.9999999973007013,0.43700000005794676,0.056999999942053285,0.5059999989635712,1565.4571445699637,7216.427125877625
4.127028255059184,1220.7387521332384,1220.1857250074545,1.0000000000051743,0.43700000011881124,0.05699999988118879,0.5059999998811888,1565.4571428538593,7216.624398132533
4.127293368970346,1220.7555009917048,1220.2054315330963,1.0000000000051743,0.43700000011802265,0.05699999988197736,0.5059999998819774,1565.4571428538593,7216.887424404993
4.127558482881508,1220.7722078802612,1220.225033406903,1.0000000000051743,0.4370000001172338,0.05699999988276621,0.5059999998827662,1565.4571428538593,7217.150446778056
4.12782359679267,1220.7888736905263,1220.2445328462477,1.0000000000051743,0.4370000001164447,0.05699999988355534,0.5059999998835554,1565.4571428538593,7217.413465238074
4.128221267659413,1220.813797288219,1220.273594675928,1.0000000000051743,0.4370000001152604,0.05699999988473956,0.5059999998847395,1565.4571428538593,7217.807985562032
4.128618938526156,1220.8386332872,1220.3024380334048,1.0000000000051743,0.4370000001140756,0.05699999988592441,0.5059999998859244,1565.4571428538593,7218.202497007877
4.129016609392899,1220.8633844650103,1220.3310698260877,1.0000000000051743,0.4370000001128901,0.05699999988710989,0.5059999998871099,1565.4571428538593,7218.596999533257
4.129414280259642,1220.8880535115213,1220.3594967433337,1.0000000000051743,0.43700000011170403,0.05699999988829599,0.505999999888296,1565.4571428538593,7218.991493097215
4.129811951126385,1220.9126430317028,1220.3877252633354,1.0000000000051743,0.43700000011051726,0.05699999988948272,0.5059999998894827,1565.4571428538593,7219.385977660155
4.130209621993128,1220.9371555483042,1220.415761659792,1.0000000000051743,0.43700000010932993,0.05699999989067006,0.50599999989067,1565.4571428538593,7219.780453183794
4.1308061282932425,1220.9737852646608,1220.4574692606889,1.0000000000051743,0.43700000010754775,0.05699999989245225,0.5059999998924523,1565.4571428538593,7220.372149439939
4.131402634593357,1221.0102551247405,1220.4987779115945,1.0000000000051743,0.4370000001057642,0.05699999989423583,0.5059999998942358,1565.4571428538593,7220.963825154919
4.132595647193586,1221.0827451236491,1220.5802725887759,1.0000000000051743,0.43700000010219286,0.056999999897807144,0.5059999998978072,1565.4571428538593,7222.147114511834
4.133788659793815,1221.1546817952496,1220.6603855742621,1.0000000000051743,0.437000000098616,0.05699999990138399,0.505999999901384,1565.4571428538593,7223.330320410498
4.134981672394044,1221.2261162297643,1220.7392439179355,1.0000000000051743,0.43700000009503365,0.056999999904966334,0.5059999999049664,1565.4571428538593,7224.513442089313
4.136174684994273,1221.2970948315951,1220.8169630161162,1.0000000000051743,0.43700000009144585,0.05699999990855416,0.5059999999085542,1565.4571428538593,7225.696478861548
4.137367697594502,1221.3676597492529,1220.893647680956,1.0000000000051743,0.43700000008785256,0.05699999991214743,0.5059999999121474,1565.4571428538593,7226.879430108452
4.1385607101947315,1221.4378492658198,1220.9693931116255,1.0000000000051743,0.4370000000842538,0.05699999991574615,0.5059999999157462,1565.4571428538593,7228.062295273012
4.139753722794961,1221.507698153567,1221.044285776333,1.0000000000051743,0.4370000000806497,0.056999999919350286,0.5059999999193503,1565.4571428538593,7229.245073854283
4.14094673539519,1221.5772379960245,1221.1184042133648,1.0000000000051743,0.43700000007704015,0.056999999922959836,0.5059999999229599,1565.4571428538593,7230.427765402229
4.142139747995419,1221.6464974804928,1221.1918197585915,1.0000000000051743,0.4370000000734252,0.05699999992657478,0.5059999999265747,1565.4571428538593,7231.610369513052
4.143332760595648,1221.715502663708,1221.2645972061957,1.0000000000051743,0.4370000000698049,0.05699999993019511,0.5059999999301951,1565.4571428538593,7232.79288582494
4.144525773195877,1221.7842772131269,1221.3367954087578,1.0000000000051743,0.4370000000661792,0.056999999933820815,0.5059999999338208,1565.4571428538593,7233.975314014205
4.145718785796106,1221.852842626076,1221.4084678222657,1.0000000000051743,0.4370000000625481,0.056999999937451896,0.5059999999374519,1565.4571428538593,7235.157653791788
4.146911798396335,1221.9212184287887,1221.4796630011156,1.0000000000051743,0.43700000005891165,0.05699999994108834,0.5059999999410884,1565.4571428538593,7236.339904900069
4.148104810996564,1221.9894223571823,1221.550425047685,1.0000000000051743,0.43700000005526984,0.05699999994473015,0.5059999999447301,1565.4571428538593,7237.522067109978
4.149297823596793,1222.0574705210488,1221.620794020656,1.0000000000051743,0.4370000000516227,0.05699999994837732,0.5059999999483773,1565.4571428538593,7238.704140218373
4.150490836197022,1222.1253775531857,1221.6908063058788,1.0000000000051743,0.4370000000479702,0.05699999995202983,0.5059999999520298,1565.4571428538593,7239.886124045657
4.151683848797251,1222.193156744841,1221.7604949532038,1.0000000000051743,0.4370000000443123,0.056999999955687705,0.5059999999556877,1565.4571428538593,7241.068018433606
4.1540698739977095,1222.3283787871587,1221.8990186520116,1.0000000000051743,0.4370000000369805,0.05699999996301951,0.5059999999630195,1565.4571428538593,7243.4315383539515
4.155262886597939,1222.395842568394,1221.9679057487904,1.0000000000051743,0.4370000000333066,0.056999999966693436,0.5059999999666934,1565.4571428538593,7244.613163659925
4.156455899198168,1222.4632205559449,1222.0365737599318,1.0000000000051743,0.4370000000296273,0.056999999970372715,0.5059999999703727,1565.4571428538593,7245.794699070751
4.157648911798397,1222.530520967948,1222.1050431202457,1.0000000000051743,0.43700000002594264,0.05699999997405736,0.5059999999740573,1565.4571428538593,7246.9761445089825
4.158841924398626,1222.5977512691964,1222.173332391264,1.0000000000051743,0.43700000002225264,0.05699999997774735,0.5059999999777474,1565.4571428538593,7248.157499909148
4.161227949599084,1222.7320280379329,1222.3094365548616,1.0000000000051743,0.43700000001485656,0.05699999998514342,0.5059999999851434,1565.4571428538593,7250.519940386823
4.162420962199313,1222.7990862610939,1222.3772806782333,1.0000000000051743,0.43700000001115047,0.05699999998884951,0.5059999999888495,1565.4571428538593,7251.701025383829
4.163613974799542,1222.8660979890874,1222.4450034331048,1.0000000000051743,0.43700000000743905,0.05699999999256097,0.505999999992561,1565.4571428538593,7252.882020180101
4.164806987399771,1222.9330678377894,1222.5126162968936,1.0000000000051743,0.4370000000037222,0.05699999999627779,0.5059999999962778,1565.4571428538593,7254.062924755413
4.166,1223.0,1222.5801296950049,1.0000000000051743,0.437,0.057,0.5059999999999999,1565.4571428538593,7255.2437390962505
