z,T,t,fs,x,y,w,rhob,p
0.0,556.2446328873356,298.0,0.0,0.22647901240259688,0.26752098759740317,0.3547195387989054,2200.0,2040.0
0.0022254273504273506,576.641508429903,344.95945591510645,4.914359925431829e-07,0.22647919020485097,0.2675208097951491,0.3547195387989054,2199.9996881628012,2044.6199015586035
0.004450854700854701,594.8455980113997,386.5313132836944,2.0213234400439033e-06,0.22647974372034593,0.2675202562796541,0.3547195387989054,2199.9987173836494,2049.4883683634566
0.008901709401709403,625.7552260393841,456.42523462301403,1.1577943800762813e-05,0.2264832013194379,0.2675167986805621,0.3547195387989054,2199.992653298461,2059.871346941702
0.013352564102564104,650.7348249350689,512.3046254359057,3.4989677874945114e-05,0.22649167171874446,0.26750832828125554,0.3547195387989054,2199.977797549831,2070.9720229194177
0.017803418803418805,671.0652102831107,557.400431442,7.633003116115992e-05,0.22650662871845662,0.2674933712815434,0.3547195387989054,2199.9515653239414,2082.645231338021
0.026705128205128208,701.3798433990208,624.0138609148025,0.0002174287546059241,0.22655767844102034,0.2674423215589797,0.3547195387989054,2199.8620321368267,2107.2549650445967
0.03560683760683761,722.001033543379,668.8796455796995,0.00043110739947585075,0.2266349876843082,0.26736501231569176,0.3547195387989054,2199.7264438790016,2132.983624368703
0.04450854700854701,736.1876350897496,699.5016996171202,0.0007047536210638504,0.2267339932837327,0.26726600671626727,0.35471953879890544,2199.5528036237083,2159.3501862577446
0.053410256410256415,746.0306401182136,720.5927826845787,0.001025511949884938,0.2268500441118093,0.2671499558881906,0.35471953879890544,2199.3492687172857,2186.0320055266093
0.06231196581196582,752.9092910404285,735.2172099548372,0.0013827429018088595,0.22697929078776546,0.26702070921223453,0.35471953879890544,2199.1225903683926,2212.8133578069205
0.07121367521367522,757.7502602610335,745.4138361616472,0.0017682833530547665,0.22711877988159063,0.26688122011840937,0.35471953879890544,2198.877948428915,2239.550905365989
0.08011538461538462,761.1839080011811,752.5603464665411,0.002176080269388276,0.22726632139672928,0.2667336786032708,0.35471953879890544,2198.6191838084906,2266.1504028847976
0.08901709401709403,763.6426258491163,757.5974263049075,0.002601722404050417,0.22742031933771303,0.26657968066228693,0.35471953879890544,2198.349095632241,2292.5509180643326
0.09791880341880344,765.4246805388119,761.1719170607611,0.003042025567279674,0.22757962166007303,0.266420378339927,0.3547195387989055,2198.0697044050366,2318.714109039169
0.10682051282051283,766.7365908571481,763.73071369908,0.0034947040699515666,0.22774340139817253,0.26625659860182743,0.3547195387989055,2197.782460494584,2344.616922443508
0.11349679487179487,767.5000165876077,765.173468499988,0.003841331460589973,0.22786881169029333,0.2661311883097066,0.3547195387989055,2197.5625105597646,2363.865207573162
0.12017307692307692,768.1241704318579,766.3152932244421,0.004193480069881654,0.2279962195673219,0.2660037804326781,0.3547195387989055,2197.3390571750856,2382.957015212706
0.13352564102564102,769.0797867932288,767.9660701730787,0.0049128448748764824,0.2282564867959724,0.26574351320402767,0.35471953879890555,2196.882589376396,2420.6679143158794
0.14687820512820512,769.7855998630113,769.0758400908834,0.005650576773425914,0.22852339926568085,0.2654766007343191,0.35471953879890555,2196.4144668696854,2457.752852557824
0.16023076923076923,770.347371181421,769.8725421164911,0.006405338665713842,0.22879647321179666,0.2652035267882033,0.3547195387989056,2195.9355381020905,2494.2252857379863
0.17358333333333334,770.8265602211229,770.4885982454666,0.007176323711352847,0.22907541671829876,0.2649245832817012,0.35471953879890566,2195.446315048416,2530.1036559548124
0.18693589743589745,771.2588674951882,771.0009182813859,0.007963043552958125,0.22936005309677773,0.26463994690322235,0.35471953879890566,2194.947107592353,2565.4085038841417
0.20028846153846155,771.6650175072381,771.4541450422755,0.008765201492206266,0.22965027500135032,0.26434972499864967,0.3547195387989057,2194.4381040017024,2600.160894570083
0.21364102564102566,772.0570321807977,771.8741725944193,0.009582616726321805,0.22994601701731043,0.2640539829826895,0.3547195387989058,2193.9194190035746,2634.3815826439286
0.24034615384615388,772.8235750664697,772.6682926974024,0.011262822814630294,0.23055391801431416,0.26344608198568586,0.35471953879890583,2192.8532562317105,2701.30702494217
0.2670512820512821,773.5859969855023,773.4424731775954,0.013003215427503772,0.23118359458310264,0.2628164054168973,0.35471953879890594,2191.748902530587,2766.333610497107
0.2937564102564103,774.3534796032578,774.2164301921943,0.01480367090816502,0.23183500198447482,0.26216499801552523,0.354719538798906,2190.60643636573,2829.5946150284585
0.32046153846153846,775.1291350505251,774.9967917035615,0.01666421843346351,0.23250815077465703,0.26149184922534296,0.3547195387989061,2189.4258392231773,2891.2089315532276
0.3471666666666667,775.914053109734,775.7858180253274,0.018584978214138074,0.23320308444606877,0.2607969155539312,0.3547195387989062,2188.207034824063,2951.282831439122
0.3738717948717949,776.7086555901091,776.5843208937746,0.020566136953280172,0.23391987054815908,0.260080129451841,0.35471953879890633,2186.9499046972746,3009.9116689892357
0.4005769230769231,777.5131475438657,777.3926364064293,0.02260793669557244,0.23465859665304473,0.25934140334695527,0.3547195387989065,2185.6542952550867,3067.1813678418807
0.4272820512820513,778.3276668545863,778.2109478581748,0.024710668679718214,0.23541936813131056,0.25858063186868946,0.3547195387989066,2184.320021694061,3123.169678293882
0.45398717948717954,779.152333535779,779.0393923439021,0.026874669227192595,0.2362023066645535,0.2577976933354465,0.3547195387989068,2182.9468706038083,3177.947233697984
0.48069230769230775,779.9872658414613,779.8780957577395,0.02910031659397587,0.23700754910633529,0.25699245089366474,0.35471953879890694,2181.534601964697,3231.578439491346
0.507397435897436,780.8325854548941,780.7271841941885,0.03138802837498326,0.23783524654310118,0.2561647534568989,0.35471953879890705,2180.082950794857,3284.122224772484
0.5341025641025642,781.6884191105271,781.5867876153677,0.03373825928612812,0.2386855634917274,0.2553144365082725,0.3547195387989073,2178.5916285575536,3335.6326811061463
0.5608076923076923,782.5548990669512,782.4570410033056,0.03615149923539026,0.23955867720163093,0.2544413227983691,0.35471953879890744,2177.0603243851774,3386.1596084488665
0.5875128205128206,783.4321632213662,783.3380847059315,0.038628271628543334,0.24045477704177887,0.2535452229582212,0.35471953879890766,2175.4887061543336,3435.7489841609004
0.6142179487179488,784.3203551226325,784.2300645332183,0.041169131870753786,0.24137406395856512,0.2526259360414349,0.35471953879890783,2173.8764214366406,3484.4433679534527
0.6409230769230769,785.2196239667823,785.1331317837725,0.04377466603371768,0.2423167499935784,0.25168325000642155,0.35471953879890805,2172.22309834449,3532.282253166299
0.6676282051282052,786.1301246044198,786.0474432605401,0.04644548966345877,0.24328305785226195,0.2507169421477381,0.35471953879890833,2170.52834628755,3579.3023728366607
0.6943333333333334,787.0520175753036,786.9731612962256,0.04918224670789099,0.24427322051590394,0.24972677948409605,0.35471953879890855,2168.7917566532697,3625.5379674882006
0.7210384615384615,787.9854691875032,787.9104537991856,0.051985608546372214,0.24528748089052874,0.24871251910947126,0.35471953879890883,2167.0129034226748,3671.021020348636
0.7477435897435898,788.9306516723318,788.8594943320066,0.05485627310604805,0.2463260914871887,0.2476739085128113,0.3547195387989091,2165.191343731079,3715.7814647267264
0.7744487179487181,789.8877434769626,789.8204622443935,0.057794964052018116,0.2473893141289654,0.2466106858710346,0.35471953879890944,2163.3266183819633,3759.847367492523
0.8011538461538462,790.8569298199661,790.793542902635,0.06080243004046291,0.24847741968074952,0.24552258031925048,0.3547195387989098,2161.4182523208956,3803.245091970098
0.8278589743589744,791.8384037656048,791.7789280998059,0.06387944402615266,0.2495906877986968,0.24440931220130319,0.3547195387989101,2159.4657550749484,3845.999443042264
0.8545641025641026,792.8323683449375,792.7768168157295,0.06702680261875908,0.25072940669734056,0.2432705933026594,0.3547195387989105,2157.4686211611424,3888.1337968654375
0.8812692307692309,793.8390408262559,793.7874166695026,0.07024532548715988,0.2518938729340683,0.24210612706593168,0.3547195387989109,2155.426330464448,3929.6702172969444
0.9079743589743591,794.8586614642113,794.8109467677428,0.07353585481963791,0.2530843912138209,0.24091560878617913,0.35471953879891127,2153.3383485803042,3970.6295609653107
0.9346794871794872,795.891511706886,795.8476434097881,0.07689925486514805,0.2543012742231223,0.2396987257768777,0.3547195387989117,2151.204127105712,4011.0315729264375
0.9613846153846155,796.9379526184265,796.897771733926,0.08033641161667901,0.25554484251551945,0.2384551574844805,0.35471953879891216,2149.023103840148,4050.8949751910272
0.9880897435897437,797.9985069492836,797.9616499474124,0.0838482327745241,0.2568154244982936,0.2371845755017064,0.35471953879891266,2146.7947028088743,4090.2375514116607
1.0147948717948718,799.0740360245328,799.0397008805071,0.08743564829664963,0.2581133566315842,0.23588664336841586,0.3547195387989132,2144.518333913706,4129.076233408738
1.0415,800.1661221020466,800.1325651538206,0.09109961223187345,0.2594389840916357,0.23456101590836437,0.35471953879891377,2142.1933917697806,4167.427200540609
1.0682051282051284,801.2778864556343,801.2413616850129,0.09484110747712637,0.2607926624919817,0.2332073375080183,0.3547195387989143,2139.8192526868716,4205.306014231139
1.0949102564102566,802.4156719544977,802.3683289837243,0.09866115759434874,0.2621747621588152,0.2318252378411848,0.354719538798915,2137.3952671710604,4242.727832001196
1.1216153846153847,803.5921494907908,803.5185037855458,0.10256085684500212,0.2635856789975183,0.23041432100248171,0.35471953879891566,2134.920740866553,4279.707779350675
1.148320512820513,804.8305951933385,804.7039682025462,0.10654144815415117,0.26502586270018014,0.22897413729981989,0.3547195387989163,2132.3948850841275,4316.261572508917
1.1750256410256412,806.1662758204532,805.9517424250257,0.11060450886958553,0.26649588395351614,0.22750411604648385,0.3547195387989171,2129.8166989290107,4352.406343125742
1.2017307692307693,807.6359023349069,807.3072778533711,0.1147522687899072,0.26799654950189117,0.22600345049810885,0.35471953879891793,2127.184767498427,4388.161129203311
1.2284358974358975,809.2556990811839,808.8143813726244,0.11898782886939288,0.269528981275055,0.22447101872494504,0.3547195387989188,2124.4971231039904,4423.546115820124
1.2551410256410258,811.0114492173109,810.4828292038794,0.12331487921392842,0.2710945143586633,0.22290548564133675,0.35471953879891976,2121.7514242153675,4458.580667400329
1.2818461538461539,812.8725642369271,812.2869135007579,0.12773703303665768,0.2726944560184663,0.22130554398153374,0.35471953879892076,2118.945378093968,4493.281673579385
1.3085512820512821,814.8105482162642,814.1906290615104,0.13225731326300097,0.2743298999532606,0.2196701000467394,0.35471953879892193,2116.077066564057,4527.663243574581
1.3352564102564104,816.8064277891258,816.1657931143773,0.13687788880284615,0.27600163087778595,0.2179983691222141,0.35471953879892315,2113.14511335936,4561.737312715514
1.3619615384615384,818.8496571985144,818.1953849859214,0.1415996066766901,0.27770995524528513,0.21629004475471483,0.3547195387989245,2110.148981009068,4595.51438214905
1.3886666666666667,820.9345247494206,820.2701753271209,0.1464204229025398,0.27945413354011195,0.21454586645988802,0.354719538798926,2107.089966507357,4629.004033333691
1.415371794871795,823.056376004076,822.3841815410278,0.1513306851163241,0.28123067352296116,0.21276932647703886,0.3547195387989276,2103.9741946929016,4662.215168445799
1.4420769230769233,825.2067467014352,824.5295285873849,0.15630012151502876,0.283028622811645,0.21097137718835507,0.35471953879892937,2100.820874322078,4695.155969715435
1.4687820512820515,827.3644060091839,826.688249162139,0.1612465330404447,0.28481824166781466,0.20918175833218536,0.3547195387989313,2097.6821642201357,4727.83344056121
1.4954871794871796,829.4812180716459,828.8191110815019,0.16598604372261314,0.2865330034991428,0.2074669965008572,0.3547195387989334,2094.674741570414,4760.25222594938
1.5221923076923078,831.4806329156042,830.8520993617286,0.17024107966018184,0.2880724816659758,0.2059275183340241,0.35471953879893575,2091.9747389093436,4792.412843814102
1.5488974358974361,833.300667613238,832.7205157670069,0.17381853233924724,0.2893668092282113,0.20463319077178868,0.3547195387989383,2089.704691865076,4824.311245149631
1.5756025641025642,834.9383282154612,834.4068244841836,0.17675473696131186,0.29042913231439443,0.2035708676856056,0.354719538798941,2087.8415441950347,4855.94150254909
1.6023076923076924,836.4319687019733,835.9394405086657,0.1792119700765936,0.2913181628154976,0.2026818371845024,0.35471953879894397,2086.282324473398,4887.299189876669
1.6201111111111113,837.3697740595225,836.8968422427857,0.18066286829827666,0.2918430998941369,0.20215690010586307,0.354719538798946,2085.361667370388,4908.05196102163
1.6379145299145301,838.2741562439539,837.8163513287781,0.18200648077995,0.2923292208366069,0.2016707791633931,0.3547195387989482,2084.509087667374,4928.68294385357
1.655717948717949,839.153714510347,838.7073875521473,0.18326986241104773,0.2927863141411015,0.20121368585889854,0.3547195387989504,2083.7074178775156,4949.192660240303
1.6735213675213678,840.0151348745945,839.5774125669031,0.18447361786177496,0.2932218346071525,0.2007781653928475,0.35471953879895274,2082.9435834545097,4969.581920215051
1.6913247863247864,840.8635866874616,840.4322401553803,0.1856335225300046,0.2936414897965655,0.20035851020343445,0.3547195387989552,2082.207574232318,4989.851746402191
1.7091282051282053,841.703081533288,841.2763861320533,0.18676178407415078,0.29404969645784107,0.19995030354215892,0.35471953879895773,2081.491643928491,5010.003316071862
1.7269316239316241,842.5367598440449,842.1133747403607,0.18786796994918292,0.29444991611004817,0.19955008388995182,0.35471953879896034,2080.7897215828166,5030.037917755123
1.7447350427350428,843.3671076812516,842.9459813570791,0.1889596764824321,0.29484489711542067,0.19915510288457933,0.35471953879896306,2080.0969870000476,5049.956919016586
1.7625384615384616,844.1961169052813,843.7764160512321,0.19004301062677398,0.29523684897835667,0.19876315102164335,0.3547195387989659,2079.4095650568565,5069.761742497196
1.7892435897435899,845.440572727619,845.0217989614265,0.19166293153943612,0.295822938711467,0.19817706128853302,0.3547195387989704,2078.3816558125905,5099.258094570395
1.8159487179487181,846.6898804474502,846.2709278800717,0.19328823208502258,0.296410974803563,0.19758902519643703,0.3547195387989751,2077.3503329606783,5128.505852769249
1.8293012820512824,847.317464440824,846.8980760754329,0.1941064050631068,0.29670699097238634,0.19729300902761365,0.3547195387989776,2076.831167141527,5143.038092128801
1.8426538461538464,847.9485843742311,847.5281506726733,0.1949346069428164,0.2970066356123474,0.19699336438765258,0.35471953879898016,2076.305637554485,5157.510093938561
1.8471047008547012,848.1607847663186,847.7395445443024,0.19521729355795622,0.29710891203925566,0.19689108796074437,0.354719538798981,2076.126260782038,5162.320830413436
1.8493301282051284,848.2672009806694,847.8455307254346,0.1953596208526049,0.2971604062606605,0.19683959373933954,0.35471953879898144,2076.0359480138427,5164.7237285372175
1.850442841880342,848.3201626651644,847.8984257387748,0.19542950396520453,0.2971856900720442,0.19681430992795576,0.35471953879898166,2075.991604183908,5165.924561189565
1.8515555555555558,848.3724204964692,847.9509622623026,0.19549603274064856,0.2972097602793854,0.1967902397206146,0.3547195387989819,2075.9493888246557,5167.124982240244
1.8526682692307697,848.423237093003,848.0027262234121,0.1955558283552289,0.29723139441937124,0.1967686055806288,0.3547195387989821,2075.911445944535,5168.324989590458
1.8537809829059833,848.4721245523259,848.053406167035,0.19560676160815801,0.297249822144072,0.196750177855928,0.3547195387989823,2075.8791266126977,5169.524579611376
1.8548936965811968,848.5193707837936,848.1030833452133,0.19565037989877693,0.2972656033048111,0.19673439669518886,0.35471953879898255,2075.8514489379445,5170.723748437539
1.8560064102564104,848.5656293912216,848.1520496700514,0.19568989106603013,0.29727989850236625,0.1967201014976338,0.35471953879898277,2075.826377408987,5171.922493409753
1.8582318376068379,848.6568605520957,848.2486644539485,0.19576463525662385,0.29730694105881067,0.19669305894118932,0.3547195387989832,2075.7789490167324,5174.318707346041
1.8604572649572653,848.7473703736249,848.3440704721266,0.19583825477892847,0.29733357670863875,0.19666642329136125,0.35471953879898366,2075.732234274708,5176.713218133167
1.8693589743589745,849.1060455768986,848.7172841643011,0.19613485718957657,0.29744088789052187,0.19655911210947813,0.35471953879898543,2075.5440273336203,5186.274244775475
1.8871623931623933,849.8154889612159,849.4405584534778,0.19674055580393648,0.2976600305267194,0.1963399694732806,0.35471953879898915,2075.159685604296,5205.314968225095
1.904965811965812,850.5233903045072,850.1527001272644,0.19736277485202364,0.29788515027977375,0.19611484972022622,0.354719538798993,2074.7648609517546,5224.248221951125
1.922769230769231,851.234860753618,850.8645992051263,0.19800230390370482,0.2981165328172068,0.1958834671827932,0.3547195387989969,2074.3590523600747,5243.0753788443635
1.9405726495726496,851.9520996906325,851.5807146311821,0.19866008780918704,0.29835451998719226,0.1956454800128078,0.354719538799001,2073.941660281307,5261.7979053717945
1.9583760683760687,852.6761604284886,852.3029830925684,0.1993371043375443,0.2985994655479976,0.19540053445200245,0.35471953879900525,2073.5120642790707,5280.417292404938
1.9761794871794873,853.4076483267104,853.0323548925917,0.20003434297079584,0.298851727495651,0.19514827250434905,0.35471953879900964,2073.069636484617,5298.935028611899
1.9939829059829062,854.1469946343793,853.7693958875608,0.20075279810443955,0.2991116656038842,0.1948883343961158,0.35471953879901413,2072.613745911386,5317.352590466557
2.011786324786325,854.8945638082002,854.5145230801301,0.2014934672051338,0.2993796407575794,0.19462035924242063,0.35471953879901885,2072.1437596240335,5335.671438715449
2.0295897435897436,855.6506956497955,855.2680968104651,0.20225735089866148,0.29965601498459443,0.1943439850154056,0.3547195387990237,2071.6590426826183,5353.893017347304
2.056294871794872,856.8016738571861,856.415036200401,0.2034489028505398,0.3000871202070764,0.1939128797929236,0.3547195387990313,2070.902951902639,5381.046122163439
2.083,857.9737823468311,857.5828708483871,0.2046983633833063,0.3005391768380203,0.19346082316197968,0.35471953879903934,2070.11011564629,5407.988325089305
2.1097051282051282,859.1681509313839,858.7727320586232,0.2060091835680352,0.3010134334799406,0.19298656652005947,0.3547195387990478,2069.278344061072,5434.724293580845
2.1364102564102567,860.3859297476669,859.9857689641958,0.20738486313932836,0.30151115634188647,0.1924888436581135,0.35471953879905666,2068.40541641539,5461.258618969012
2.1631153846153848,861.6282945720666,861.2231550521941,0.2088289631897642,0.30203363383231213,0.19196636616768784,0.3547195387990661,2067.4890730433867,5487.595820497109
2.189820512820513,862.8964516767724,862.4860932712467,0.21034511980860457,0.30258218149358035,0.19141781850641965,0.35471953879907603,2066.5270066905914,5513.740349402484
2.2165256410256413,864.1916428167384,863.775821045469,0.2119370585527333,0.3031581472375692,0.19084185276243082,0.3547195387990865,2065.516853331496,5539.696593036566
2.2432307692307694,865.5151504544822,865.0936154826932,0.21360860957723612,0.30376291681993767,0.19023708318006236,0.35471953879909757,2064.4561825685473,5565.468879031691
2.296641025641026,868.252481414657,867.8187439074376,0.21720648570455467,0.3050646336153186,0.18893536638468142,0.3547195387991217,2062.173175971073,5616.478615331711
2.3233461538461544,869.6691230314054,869.2288803230646,0.2191411352934833,0.305764592639467,0.18823540736053307,0.35471953879913487,2060.9455578933434,5641.724460739895
2.3500512820512824,871.1197291525506,870.6726996483396,0.22117207741910455,0.3064993904428969,0.1875006095571031,0.3547195387991488,2059.65683807426,5666.803147275852
2.3767564102564105,872.60580319739,872.15171082131,0.22330363787721333,0.30727059210479407,0.18672940789520587,0.35471953879916357,2058.3042716109994,5691.7187673984345
2.4034615384615385,874.1290557421783,873.667580092027,0.2255409080866469,0.3080800397078702,0.18591996029212982,0.3547195387991792,2056.884627780105,5716.4753792110805
2.4301666666666666,875.6912335747296,875.2220562267589,0.22788891518494336,0.3089295520777697,0.18507044792223037,0.3547195387991959,2055.39471664736,5741.077015102104
2.456871794871795,877.2941441308518,876.8169371688192,0.23035285679409015,0.30982100972165755,0.18417899027834245,0.3547195387992136,2053.8312400988584,5765.527683330008
2.4835769230769236,878.939686962184,878.4541090244476,0.23293817806849765,0.3107563827042885,0.1832436172957115,0.3547195387992324,2052.190742950764,5789.831372541082
2.5102820512820516,880.6298609843078,880.1355559437073,0.2356505821881098,0.3117377344444287,0.18226226555557132,0.3547195387992524,2050.4696062909793,5813.992056609008
2.5369871794871797,882.3667702644542,881.8633665046926,0.2384960410803354,0.3127672255940666,0.18123277440593338,0.35471953879927376,2048.664040675624,5838.013699550802
2.5636923076923077,884.1526296536854,883.6397394836564,0.2414808062699783,0.3138471179639333,0.18015288203606675,0.3547195387992965,2046.7700792442872,5861.900260489024
2.5903974358974358,885.989770557272,885.4669896638846,0.244611419781457,0.31497977846794106,0.17902022153205893,0.35471953879932083,2044.7835708021034,5885.655698661041
2.6171025641025643,887.8806469044199,887.3475538266706,0.24789472501216261,0.31616768305718074,0.17783231694281934,0.3547195387993468,2042.7001729201395,5909.283978482627
2.6438076923076927,889.8278413222296,889.283996949319,0.25133787748137104,0.31741342060889277,0.17658657939110728,0.35471953879937457,2040.5153451147496,5932.789074674081
2.670512820512821,891.834071500695,891.2790186043178,0.254948355340016,0.31871969672891914,0.17528030327108088,0.3547195387994043,2038.2243421786739,5956.174977456591
2.697217948717949,893.9021967223586,893.3354595409978,0.2587339695023966,0.32008933741736934,0.17391066258263066,0.35471953879943624,2035.8222077520363,5979.445697825558
2.7239230769230773,896.035224508972,895.4563084185901,0.2627028732276987,0.32152529253522905,0.17247470746477095,0.3547195387994705,2033.303768242458,6002.605272905997
2.741726495726496,897.4948551365572,896.9075355830626,0.2654548216067286,0.32252095144571347,0.17147904855428653,0.3547195387994947,2031.557539055319,6017.985250015428
2.759529914529915,898.9883063115743,898.3904339904996,0.26830415270369345,0.32354839013708675,0.17045160986291324,0.3547229922270652,2029.749516360105,6033.318868873145
2.7773333333333334,900.5268296121363,899.9129275457558,0.2712830935255364,0.32460857723160186,0.1693914227683982,0.3547405902377313,2027.859250739753,6048.607561078034
2.7951367521367523,902.1162860910474,901.4835257367542,0.27440019937214494,0.3257025477212915,0.16829745227870851,0.35477439315935416,2025.8813134898296,6063.852978850007
2.812940170940171,903.760573873249,903.1071447325403,0.27766262266026626,0.3268313977827098,0.16716860221729019,0.354825892570121,2023.8111660953757,6079.056870976276
2.83074358974359,905.463228754008,904.7876166382251,0.2810780266468932,0.32799626741712845,0.16600373258287157,0.35489672104624265,2021.6439458914042,6094.221057306422
2.848547008547009,907.2278130004312,906.5285484584272,0.2846545787011046,0.329198334303952,0.164801665696048,0.35498865587428,2019.3744703322047,6109.347423785351
2.8663504273504277,909.0580566255276,908.3336316733856,0.28840096533833176,0.33043881012692766,0.16356118987307233,0.35510362816435387,2016.9972274514569,6124.437924117566
2.8841538461538465,910.957904392635,910.2067600837436,0.29232640884286615,0.33171893506133426,0.16228106493866573,0.355243734377003,2014.5063653145367,6139.494583730722
2.901957264957266,912.931507485985,912.1520792077775,0.296440666269107,0.33303996454856133,0.16096003545143867,0.3554112491872554,2011.8956926522687,6154.51950416953
2.919760683760684,914.9831332334738,914.1740069982985,0.3007539699535659,0.33440313400084526,0.1595968659991547,0.35560863925704905,2009.1587166086072,6169.514866259127
2.937564102564103,917.116868713585,916.2772331160843,0.3052767956731039,0.335809560477273,0.15819043952272702,0.35583857767854254,2006.2887898541726,6184.482928632007
2.955367521367522,919.3357372941892,918.4666832942139,0.310019120077327,0.3372599590993544,0.15674004090064558,0.3561039588965073,2003.2795817772183,6199.426012338095
2.9731709401709403,921.6390969505666,920.7473730282948,0.314988148533569,0.33875380576527836,0.15524619423472172,0.35640791392509497,2000.1265202633704,6214.346444672312
2.990974358974359,924.0151554172413,923.1235587561723,0.3201816076401081,0.3402868964894187,0.1537131035105813,0.3567538242298948,1996.8310478834526,6229.246384578957
3.008777777777778,926.421950013479,925.5925162381699,0.3255703643650165,0.3418450691183927,0.15215493088160728,0.357145311591131,1993.411650794781,6244.127327027524
3.0265811965811964,928.7578086971043,928.1107940837613,0.3310710330787068,0.3433945039949148,0.1506054960050852,0.3575860266244964,1989.9212407530001,6258.988955646011
3.0443846153846157,930.8811745204521,930.5260005909805,0.3365645826291389,0.3448894292606829,0.1491105707393171,0.35807867554503503,1986.435348125413,6273.827689488564
3.05773717948718,932.2957029782028,932.1530004637128,0.3406529376136189,0.34596472668323486,0.14803527331676516,0.3584825508790066,1983.8411116725467,6284.937937830157
3.071089743589744,933.5894973293612,933.6033093266735,0.3447467982702375,0.3470131132170844,0.14698688678291558,0.35891532906183665,1981.2433816347514,6296.029155078584
3.0977948717948722,936.0128486475733,936.1726778529912,0.3531163102396821,0.34909032161171516,0.1449096783882848,0.3598662222233563,1975.9325675967684,6318.148588937003
3.1245000000000003,938.4463890371273,938.6292335860137,0.36189522198286,0.35119943841123297,0.14280056158876706,0.360933328411257,1970.3619718566474,6340.1821909998525
3.1512051282051283,941.0195950522087,941.1814397500742,0.3711742380500371,0.3533653006833749,0.1406346993166251,0.3621246275954991,1964.4740384899064,6362.1340139185095
3.1779102564102564,943.7836322875773,943.9083706973496,0.3810008791403807,0.35559404741235856,0.13840595258764146,0.36345117384967074,1958.2386135763222,6384.011112225672
3.204615384615385,946.7670284381668,946.8459822998683,0.39141490903656617,0.35788744396762756,0.1361125560323724,0.3649255883985094,1951.6304652916258,6405.821757366386
3.2313205128205134,949.9938502973519,950.0197576078297,0.4024563005035983,0.3602462577349967,0.1337537422650033,0.3665615660604911,1944.6242292033023,6427.574978154245
3.2580256410256414,953.4885309060649,953.4540425470545,0.4141665050629586,0.3626708833659056,0.13132911663409444,0.3683737094047023,1937.1936025444786,6449.280488367867
3.2847307692307695,957.2769840177548,957.1743450322211,0.4265883442106282,0.3651614092256849,0.12883859077431506,0.3703774229450972,1929.3114132407472,6470.9487101240775
3.311435897435898,961.3867737903474,961.2077976353444,0.4397655364840779,0.3677175785311338,0.12628242146886623,0.3725887808950726,1920.9499200064317,6492.590816787686
3.338141025641026,965.8470077887888,965.5831370587101,0.45374199370886853,0.3703387259697898,0.12366127403021018,0.37502433592919715,1912.081258906278,6514.218776018045
3.364846153846154,970.6880815589712,970.3304961171776,0.46856086441046557,0.37302370164961235,0.12097629835038769,0.37770084913853824,1902.678050351656,6535.845386298592
3.3915512820512825,975.9412768087511,975.4810473950316,0.4842632779145868,0.37577078307395867,0.11822921692604138,0.3806349236693702,1892.7141960227127,6557.484302313072
3.4182564102564106,981.6381864759927,981.0664791208505,0.5008867413813076,0.3785775744464296,0.11542242555357042,0.38384252546294756,1882.1658960189297,6579.1500441189555
3.4449615384615386,987.8099337803543,987.1182705698645,0.5184631492033401,0.3814408928293975,0.11255910717060244,0.387338376894389,1871.012911981229,6600.8579841131295
3.471666666666667,994.4861536488223,993.6667330269646,0.5370163803618224,0.38435664135219655,0.10964335864780342,0.39113521428433196,1859.2400916726938,6622.624304749036
3.498371794871795,1001.6937119990615,1000.7397874583122,0.5565594869167674,0.3873196707037837,0.10668032929621628,0.3952429091980414,1846.8391530018716,6644.46591905366
3.525076923076923,1009.4551523083957,1008.3614619617883,0.5770915177153377,0.39032363159458233,0.10367636840541768,0.39966746679661946,1833.8106995160017,6666.400345407883
3.5517820512820517,1017.7868808740808,1016.550112154166,0.5985940757781814,0.3933608227625765,0.10063917723742352,0.4044099322882994,1820.1664048869247,6688.445528036709
3.5784871794871798,1026.6971324706499,1025.316396681354,0.6210277728388234,0.3964220414024106,0.09757795859758939,0.409465257746561,1805.9312626577876,6710.619595478782
3.605192307692308,1036.183795343503,1034.6610772730469,0.6443288132959955,0.3994964454983164,0.09450355450168363,0.41482120384620774,1791.1457538716925,6732.940551230476
3.6318974358974363,1046.2322149944189,1044.5727552092067,0.6684060011862137,0.4025714402142361,0.09142855978576388,0.4204573705915858,1775.8677462758678,6755.425893979745
3.658602564102565,1056.8131339940037,1055.025698101092,0.6931385032328489,0.4056326028878454,0.08836739711215456,0.4263444629904737,1760.1739137629045,6778.092169400894
3.685307692307693,1067.880952388791,1065.9779446494788,0.7183747037164033,0.4086636628375482,0.08533633716245181,0.43244389693749524,1744.16046300464,6800.95446119446
3.712012820512821,1079.3725023383076,1077.3698917939623,0.7439324418725927,0.4116465526257932,0.08235344737420681,0.4387078338417721,1727.9429828129025,6824.025835486078
3.738717948717949,1091.206515675173,1089.123561036207,0.7696008271779105,0.41456154617753405,0.07943845382246598,0.4450796992814116,1711.6552922630224,6847.316759162395
3.756521367521368,1099.2326961806223,1097.1086885766183,0.7866466578352682,0.41645541559115834,0.07754458440884168,0.44935303609532634,1700.8389821753292,6862.981031028819
3.7743247863247866,1107.3138088795965,1105.1601484041355,0.803517065023665,0.41829835519846265,0.07570164480153736,0.45361383425034046,1690.1339857968405,6878.7899098889275
3.7921282051282055,1115.4119483036704,1113.2399115209087,0.8201338949845729,0.42008392869165606,0.07391607130834393,0.45784025391118166,1679.5898950367891,6894.7461105335415
3.809931623931624,1123.4885102291998,1121.3094809960937,0.8364203509167266,0.42180598210680675,0.07219401789319325,0.46201066384782213,1669.255440756869,6910.849279594731
3.827735042735043,1131.503391898465,1129.328827278059,0.852299570393145,0.42345844545626726,0.07054155454373277,0.4661033251104706,1659.179395461104,6927.098156463082
3.845538461538462,1139.415416039216,1137.2567317744226,0.867695583821833,0.42503540788936744,0.06896459211063252,0.4700966626413498,1649.4099651114545,6943.490540902989
3.863341880341881,1147.182823862724,1145.0512702598055,0.8825342368395184,0.4265311952426618,0.06746880475733816,0.47396952144783994,1639.9942038294607,6960.02327187743
3.8811452991452993,1154.7637880785162,1152.6703381476575,0.8967440527295528,0.42794044853112717,0.0660595514688728,0.4777014001353265,1630.9774666551245,6976.692218754526
3.898948717948718,1162.1169212321322,1160.0721796157584,0.9102570113686701,0.429258201889272,0.064741798110728,0.48127265479015696,1622.4029152718058,6993.492285268133
3.916752136752137,1169.2017606969973,1167.21589803151,0.9230092233576613,0.43047995859034305,0.06352004140965695,0.48466466686188897,1614.3110902414198,7010.417426086811
3.9345555555555562,1175.9792128610416,1174.061929042731,0.9349414802068228,0.4316017640508033,0.06239823594919673,0.4878599692167043,1606.7395618881906,7027.460675386429
3.9523589743589747,1182.4119386696193,1180.57245847194,0.9459996627931816,0.43262027520576407,0.061379724794235944,0.49084232454239335,1599.722671115035,7044.614186361792
3.9701623931623935,1188.4646610980217,1186.7117665997275,0.9561349898038046,0.43353282640325147,0.060467173596748525,0.4935967493412374,1593.2913717556369,7061.869280127602
3.9879658119658123,1194.104371606442,1192.4464784135434,0.9653040840362067,0.4343374931792222,0.059662506820777825,0.49610947414257606,1587.4731885039967,7079.216501919445
4.005769230769231,1199.3004054062906,1197.7456947977744,0.9734688245250004,0.4350331572936164,0.058966842706383596,0.4983678249659634,1582.2923107464076,7096.64568185536
4.02357264957265,1204.0243407020023,1202.58097000399,0.9805959309958502,0.43561958001864415,0.05838041998135588,0.5003599996877187,1577.769856243233,7114.145996641587
4.032474358974358,1206.2009231200304,1204.816359339326,0.9837611127280589,0.43587201436811607,0.058127985631883934,0.5012527326746208,1575.761412783501,7122.919283055232
4.041376068376068,1208.2496463501038,1206.926079771655,0.9866561821046923,0.43609749765918143,0.05790250234081855,0.5020746896783482,1573.9243671896254,7131.706027272202
4.047310541310541,1209.5428770443868,1208.2612512685173,0.9884345646042043,0.4362329762242899,0.057767023775710094,0.5025826324780533,1572.7959072772921,7137.570587579831
4.0532450142450145,1210.776954714246,1209.5383471614941,0.9900905115521468,0.4363566941550745,0.057643305844925476,0.5030580385521418,1571.7451379696677,7143.440001149331
4.059179487179487,1211.9509393294568,1210.7564907041335,0.9916230719512555,0.43646876981199856,0.05753123018800145,0.5035004454679626,1570.772662715273,7149.313805278727
4.065113960113961,1213.0638708478325,1211.9148017110003,0.9930312736502178,0.4365693419249267,0.05743065807507332,0.5039093627698974,1569.8790983857803,7155.191530791914
4.071048433048433,1214.1147561365362,1213.01238770779,0.9943141034886664,0.43665857231853966,0.05734142768146033,0.504284262070377,1569.0650878748631,7161.0727018896205
4.076982905982907,1215.1025523950152,1214.0483330727807,0.9954704825153462,0.4367366496042686,0.05726335039573137,0.504624564391843,1568.3313158233334,7166.9568358895585
4.082917378917379,1216.0261459608037,1215.0216857207556,0.9964992348472504,0.43680379431866456,0.05719620568133545,0.5049296237615687,1567.6785283793547,7172.8434428254295
4.088851851851853,1216.884325038808,1215.9314408910636,0.9973990485287798,0.4368602663118644,0.0571397336881356,0.5051987056619808,1567.1075580349807,7178.732024864794
4.094786324786326,1217.6757446697734,1216.776521894282,0.9981684271859255,0.43690637580999026,0.057093624190009705,0.5054309584766726,1566.6193543036509,7184.622075493849
4.097753561253562,1218.045952350252,1217.1744481555822,0.9985036716927485,0.43692565942746436,0.057074340572535666,0.5055329668074637,1566.4066272964499,7187.567490602551
4.100720797720799,1218.398882894268,1217.555758809826,0.9988056344996215,0.4369425008504626,0.057057499149537436,0.5056253759654707,1566.215018954226,7190.51307840352
4.1036880341880355,1218.7343102625146,1217.920290121982,0.9990740530429134,0.4369569627180075,0.0570430372819925,0.505708028315769,1566.0446958848552,7193.4587725877955
4.1066552706552715,1219.0519917885524,1218.2678713250234,0.9993086468365897,0.43696911676490036,0.05703088323509962,0.5057807506433036,1565.8958360687477,7196.404506031674
4.109622507122507,1219.3516688089671,1218.598326200249,0.9995091231571395,0.4369790464719335,0.05702095352806657,0.5058433535594922,1565.7686252515166,7199.350210736476
4.112589743589744,1219.633071212704,1218.911477325547,0.9996751930134191,0.43698685102044604,0.05701314897955396,0.5058956333255807,1565.6632468104276,7202.295817777225
4.11555698005698,1219.895931837731,1219.2071561377563,0.9998066117292862,0.4369926515188557,0.05700734848114435,0.505937380308969,1565.5798560029796,7205.241257284639
4.118524216524217,1220.1400270557542,1219.485226510519,0.9999032832843368,0.4369966015317806,0.05700339846821936,0.5059684062047174,1565.518513758233,7208.186458523431
4.1200078347578355,1220.2550048898931,1219.617637713572,0.9999386618065985,0.4369979439309842,0.057002056069015775,0.5059798638061238,1565.4960645696356,7209.658947526086
4.121491452991454,1220.3652947716446,1219.7456431404091,0.9999655506870698,0.43699890667910146,0.05700109332089851,0.5059886294939173,1565.479002422596,7211.131350247365
4.122975071225072,1220.4709764868671,1219.8692773281819,0.9999842122490042,0.4369995304508867,0.057000469549113295,0.5059947575022764,1565.4671608617678,7212.603657892315
4.123716880341881,1220.5221410707868,1219.9294766715543,0.9999906054377516,0.4369997309317901,0.05700026906820982,0.5059968700863242,1565.4631041095133,7213.339773374176
4.124458689458691,1220.5722379494462,1219.988616940889,0.9999951730480225,0.436999867495252,0.05700013250474801,0.5059983860908758,1565.4602057650418,7214.075861914639
4.124953228869897,1220.6050719531288,1220.027466194727,0.9999972793789552,0.4369999276515521,0.057000072348447874,0.5059990880081588,1565.4588692077937,7214.566572154604
4.125447768281103,1220.6374840376295,1220.0658635887987,0.99999870882096,0.43699996687617654,0.05700003312382348,0.5059995659577226,1565.4579621655798,7215.057269710516
4.125942307692309,1220.6695093221151,1220.103820750683,0.9999995494827951,0.43699998894798386,0.057000011052016124,0.5059998480385851,1565.4574287296173,7215.5479543282145
4.126436847103515,1220.701196458958,1220.1413528876628,0.9999999225790287,0.4369999982783377,0.057000001721662336,0.5059999736949892,1565.457191984067,7216.0386257798755
4.1269313865147215,1220.7326146727596,1220.1784802439258,0.999999999803832,0.43700000011365375,0.05699999988634627,0.505999999799719,1565.4571429816197,7216.529283874633
4.127055021367523,1220.7404381857373,1220.1877018631142,1.0000000000546903,0.4370000001189873,0.05699999988101267,0.5059999998851461,1565.4571428224397,7216.651946293709
4.127178656220324,1220.7482523056237,1220.1969002662756,1.0000000000792648,0.4370000001191798,0.056999999880820225,0.5059999998938448,1565.457142806846,7216.774607867487
4.127425925925927,1220.763852964618,1220.2152283780301,1.0000000000432654,0.4370000001176283,0.05699999988237173,0.5059999998823718,1565.457142829689,7217.019928473474
4.127920465337132,1220.7949466578036,1220.251616162007,1.0000000000432654,0.43700000011615625,0.05699999988384373,0.5059999998838437,1565.457142829689,7217.510559480268
4.128415004748338,1220.825901519117,1220.2876577216084,1.0000000000432654,0.4370000001146833,0.0569999998853167,0.5059999998853167,1565.457142829689,7218.001176808244
4.128909544159544,1220.8567230010533,1220.3233666165681,1.0000000000432654,0.4370000001132094,0.056999999886790643,0.5059999998867907,1565.457142829689,7218.491780374173
4.12940408357075,1220.8874163429107,1220.3587558763568,1.0000000000432654,0.43700000011173445,0.056999999888265554,0.5059999998882656,1565.457142829689,7218.982370098231
4.1298986229819565,1220.9179865791318,1220.3938380209304,1.0000000000432654,0.4370000001102586,0.05699999988974142,0.5059999998897414,1565.457142829689,7219.4729459038745
4.130393162393163,1220.9484385473168,1220.42862508067,1.0000000000432654,0.43700000010878176,0.05699999989121826,0.5059999998912182,1565.457142829689,7219.963507717704
4.131876780626781,1221.0391304244954,1220.531329102757,1.0000000000432654,0.4370000001043455,0.05699999989565451,0.5059999998956545,1565.457142829689,7221.435108518978
4.1333603988603995,1221.128914705954,1220.631767335972,1.0000000000432654,0.43700000009990064,0.056999999900099345,0.5059999999000994,1565.457142829689,7222.906581028598
4.134844017094018,1221.217894374164,1220.730195875697,1.0000000000432654,0.4370000000954473,0.05699999990455269,0.5059999999045527,1565.457142829689,7224.377923706363
4.1363276353276355,1221.3061607998443,1220.8268419388917,1.0000000000432654,0.4370000000909855,0.05699999990901451,0.5059999999090146,1565.457142829689,7225.849135197581
4.137811253561254,1221.393795051731,1220.921907121988,1.0000000000432654,0.43700000008651524,0.05699999991348477,0.5059999999134848,1565.457142829689,7227.32021431214
4.139294871794872,1221.4808690585282,1221.0155702909979,1.0000000000432654,0.4370000000820366,0.05699999991796342,0.5059999999179634,1565.457142829689,7228.791160005897
4.1415202991452995,1221.610567218113,1221.1537784589377,1.0000000000432654,0.4370000000753029,0.0569999999246971,0.5059999999246971,1565.457142829689,7230.997326413609
4.143745726495727,1221.7393326310585,1221.2896472407897,1.0000000000432654,0.43700000006855044,0.05699999993144954,0.5059999999314495,1565.457142829689,7233.203187977382
4.145229344729345,1221.8247358718295,1221.3791202925256,1.0000000000432654,0.43700000006403844,0.05699999993596156,0.5059999999359616,1565.457142829689,7234.673591926648
4.1467129629629635,1221.9098336839666,1221.467824972931,1.0000000000432654,0.4370000000595181,0.05699999994048188,0.5059999999404818,1565.457142829689,7236.143858907906
4.148196581196582,1221.9946611620528,1221.555848548788,1.0000000000432654,0.4370000000549895,0.0569999999450105,0.5059999999450105,1565.457142829689,7237.6139884649065
4.150422008547009,1222.1214626453352,1221.6867737983348,1.0000000000432654,0.43700000004818107,0.05699999995181896,0.505999999951819,1565.457142829689,7239.818924285364
4.152647435897436,1222.2478158228496,1221.8165642835454,1.0000000000432654,0.437000000041354,0.05699999995864604,0.5059999999586461,1565.457142829689,7242.023548932044
4.1548728632478635,1222.373796504664,1221.9454085119892,1.0000000000432654,0.43700000003450823,0.056999999965491745,0.5059999999654917,1565.457142829689,7244.227861544596
4.157098290598291,1222.4994680530656,1222.0734640379899,1.0000000000432654,0.43700000002764394,0.05699999997235608,0.5059999999723561,1565.457142829689,7246.431861460871
4.158581908831909,1222.5831038726474,1222.1584621840973,1.0000000000432654,0.43700000002305733,0.05699999997694266,0.5059999999769427,1565.457142829689,7247.901020767017
4.160065527065528,1222.6666394978504,1222.2432022909488,1.0000000000432654,0.43700000001846245,0.05699999998153753,0.5059999999815376,1565.457142829689,7249.370040761465
4.161549145299146,1222.7500868923146,1222.327714106499,1.0000000000432654,0.4370000000138593,0.056999999986140686,0.5059999999861406,1565.457142829689,7250.838921356333
4.163032763532764,1222.83345667153,1222.412024026397,1.0000000000432654,0.4370000000092479,0.05699999999075214,0.5059999999907522,1565.457142829689,7252.3076624851465
4.164516381766383,1222.9167582547877,1222.4961554718357,1.0000000000432654,0.4370000000046281,0.05699999999537191,0.5059999999953719,1565.457142829689,7253.776264100417
4.166,1223.0,1222.580129224803,1.0000000000432654,0.4370000000000001,0.057,0.506,1565.457142829689,7255.244726171488
