z,T,t,fs,x,y,w,rhob,p
0.0,556.2446352945328,298.0,0.0,0.2264790845014762,0.26752091549852386,0.35471946669755056,2200.0,2040.0
0.0017186468646864688,572.2006720668844,334.7702313587354,3.156231852652692e-07,0.2264791986944019,0.2675208013055982,0.35471946669755056,2199.9997997235623,2043.5450192587932
0.0034372937293729376,586.8074382592096,368.2133564257454,1.1448068257433444e-06,0.22647949869424433,0.2675205013057557,0.35471946669755056,2199.999273571006,2047.241907554787
0.006874587458745875,612.5054778773497,426.56840592005653,5.852841326837371e-06,0.22648120206794772,0.26751879793205235,0.35471946669755056,2199.996286121342,2055.043621268989
0.010311881188118812,634.2428322607758,475.4711981847519,1.724769843158093e-05,0.2264853247437569,0.2675146752562432,0.35471946669755056,2199.9890555961583,2063.31817932627
0.01374917491749175,652.7193080396228,516.7214224224911,3.790678743502719e-05,0.22649279923208887,0.2675072007679112,0.35471946669755056,2199.975946518796,2071.9908765195787
0.020623762376237625,681.9863112708173,581.4854584154983,0.00011261302318583605,0.22651982805641663,0.2674801719435834,0.35471946669755056,2199.9285422105163,2090.2835008128404
0.0274983498349835,703.5526906494777,628.7589871679965,0.00023367706710872093,0.22656362920290343,0.2674363707970966,0.35471946669755056,2199.851721886188,2109.5105773808245
0.03437293729372937,719.5866409128021,663.6467182126225,0.00039758743084934484,0.2266229322099753,0.2673770677900247,0.35471946669755056,2199.7477137356645,2129.3701240588916
0.04124752475247525,731.5874606436928,689.597104332007,0.0005983837241596363,0.2266955805998052,0.2673044194001948,0.35471946669755056,2199.620299882004,2149.6401304362266
0.051559405940594064,744.2663652848116,716.8241800933947,0.0009554951664849345,0.2268247840370154,0.2671752159629846,0.35471946669755056,2199.3936973670725,2180.470199078419
0.06187128712871287,752.6231571353417,734.61136568125,0.0013643313205455427,0.22697270154986934,0.2670272984501307,0.3547194666975506,2199.134273305772,2211.4876645324716
0.07218316831683169,758.1834494254325,746.3202599969694,0.0018117073381035634,0.22713456284117253,0.2668654371588275,0.3547194666975506,2198.8503940493733,2242.45597297614
0.0824950495049505,761.9223845824101,754.0823054061823,0.0022882689851989797,0.22730698353552597,0.2666930164644741,0.3547194666975506,2198.547995260221,2273.229453030242
0.0928069306930693,764.4703614064921,759.2682479882955,0.002787536933610069,0.22748761940259193,0.26651238059740806,0.3547194666975506,2198.2311883497555,2303.7204259407445
0.10311881188118813,766.2378388559808,762.7675780227678,0.0033050768071873544,0.22767486607865506,0.266325133921345,0.35471946669755067,2197.9027871196904,2333.8781804240025
0.11343069306930693,767.4932653779708,765.160762977719,0.003837873335812622,0.22786763263461815,0.26613236736538187,0.35471946669755067,2197.564704888141,2363.675495686817
0.12374257425742574,768.4126879747544,766.82792906279,0.004383883491380088,0.22806517989995256,0.2659348201000475,0.35471946669755067,2197.218238043998,2393.099990683963
0.13405445544554456,769.1117382476137,768.0185232601888,0.0049417255289736,0.22826700795734584,0.26573299204265416,0.3547194666975507,2196.864263363629,2422.148569894086
0.14436633663366338,769.6664277402655,768.8964263596315,0.005510465554059168,0.22847277892240256,0.2655272210775974,0.3547194666975507,2196.50337344314,2450.823860259146
0.1546782178217822,770.1267397260749,769.5693627699067,0.006089472203731061,0.22868226436710873,0.2653177356328913,0.3547194666975508,2196.135968909353,2479.131930149133
0.164990099009901,770.5255421671551,770.108153802701,0.006678318206419898,0.22889530970399155,0.26510469029600847,0.3547194666975508,2195.7623208843893,2507.080834190062
0.1753019801980198,770.8844440127849,770.5593542962282,0.007276713924805239,0.22911181014184878,0.26488818985815127,0.35471946669755083,2195.382613155543,2534.679690012243
0.1856138613861386,771.2176472899617,770.9535587707747,0.007884462598138091,0.2293316944923564,0.2646683055076436,0.35471946669755083,2194.9969705759413,2561.93809730954
0.20623762376237625,771.8410506105806,771.6444171922947,0.009127525857585488,0.22978143658055317,0.2642185634194469,0.3547194666975509,2194.2081936636823,2615.4723537217874
0.22686138613861387,772.4382188113319,772.272197327014,0.010406869483451807,0.2302443049578826,0.2637556950421173,0.35471946669755094,2193.396395304058,2667.7594518353985
0.24748514851485148,773.027391203008,772.8761710866943,0.011722199456222014,0.2307201932476583,0.2632798067523417,0.354719466697551,2192.5617620650505,2718.870716672558
0.28873267326732677,774.2086510806184,774.0705484563686,0.014460396757679921,0.23171087699837895,0.26228912300162105,0.35471946669755117,2190.8242585259627,2817.823397474355
0.329980198019802,775.407952664478,775.277101915995,0.017341946080607736,0.23275342571815327,0.2612465742818467,0.35471946669755133,2188.9957919855938,2912.793154023617
0.3712277227722772,776.6296879610775,776.5049686866424,0.02036730014659918,0.23384800320230986,0.26015199679769013,0.3547194666975515,2187.076075172691,3004.169040904986
0.4124752475247525,777.8749535360984,777.7561338208515,0.02353727363064171,0.23499490420143945,0.25900509579856057,0.3547194666975517,2185.0645911410593,3092.280839064326
0.45372277227722774,779.1442668744929,779.0312882385736,0.026852966892918412,0.23619452682745048,0.25780547317254954,0.3547194666975519,2182.960641665005,3177.4108896787616
0.49497029702970297,780.4380681897708,780.3309132386028,0.03031572940313963,0.23744735932043917,0.25655264067956085,0.35471946669755217,2180.763370448162,3259.803188885665
0.5362178217821782,781.756811447386,781.6554787615692,0.033927135168015765,0.2387539711583138,0.2552460288416862,0.35471946669755244,2178.4717787158156,3339.6703777609523
0.5774653465346535,783.1009801691561,783.005478884694,0.03768896375214676,0.24011500619012482,0.25388499380987517,0.3547194666975527,2176.084737257959,3417.1991758295985
0.6187128712871287,784.4710898109562,784.3814378815754,0.04160318490808367,0.24153117707519892,0.25246882292480105,0.35471946669755305,2173.600996182182,3492.554658953557
0.659960396039604,785.8676879690261,785.7839111641175,0.0456719458711798,0.24300326068639785,0.25099673931360217,0.3547194666975534,2171.019192975628,3565.8836683191025
0.7012079207920793,787.2913544781992,787.2134854996857,0.04989756070582738,0.2445320942555712,0.2494679057444288,0.3547194666975538,2168.337859265265,3637.317557198367
0.7424554455445544,788.7427019237132,788.6707793341403,0.05428250124882152,0.2461185720968527,0.24788142790314732,0.3547194666975542,2165.555426564712,3706.9744265250083
0.7837029702970297,790.222377148669,790.1564435323771,0.05882938929804298,0.24776364278051397,0.24623635721948603,0.3547194666975547,2162.6702312308503,3774.9609612668683
0.824950495049505,791.7310653310968,791.6711630863047,0.0635409897727291,0.2494683066583408,0.2445316933416592,0.3547194666975552,2159.6805188039275,3841.3739518261636
0.8661980198019802,793.2695013500132,793.2156613345676,0.06842020464553632,0.25123361366824465,0.24276638633175532,0.3547194666975558,2156.5844478579224,3906.3015648850237
0.9074455445544555,794.8385029954915,794.7907112493665,0.07347006755137447,0.25306066138373107,0.24093933861626896,0.35471946669755644,2153.3800934214723,3969.8244143622474
0.9486930693069308,796.4390721737053,796.3971675935587,0.07869373920960798,0.25495059335764514,0.23904940664235488,0.3547194666975571,2150.0654498826802,4032.016475325082
0.9899405940594059,798.0727143965966,798.0360632127575,0.08409450445750845,0.25690459804887084,0.2370954019511292,0.3547194666975579,2146.63843287152,4092.945885417855
1.0311881188118812,799.7424750548437,799.7089122276129,0.0896757738135434,0.2589239093879307,0.2350760906120693,0.3547194666975587,2143.0968782678574,4152.675704363899
1.0724356435643565,801.4563277083521,801.4187394311377,0.09544109995908458,0.2610098127400922,0.23299018725990778,0.3547194666975596,2139.4385317431056,4211.264802200444
1.0930594059405943,802.3359389612363,802.2897288648028,0.0983939488489292,0.2620781577464743,0.23192184225352566,0.3547194666975601,2137.564822571832,4240.149177120395
1.1136831683168318,803.2377107319539,803.1741169111186,0.10139425186865646,0.2631636717257987,0.23083632827420134,0.3547194666975606,2135.6610017214,4268.769374260282
1.1343069306930693,804.171252346705,804.0764717686088,0.10444256080908117,0.2642665543167815,0.22973344568321852,0.3547194666975611,2133.726719056889,4297.132535112532
1.154930693069307,805.1507893566112,805.0056985050503,0.10753951749962393,0.26538703773423705,0.22861296226576297,0.3547194666975617,2131.761567310024,4325.24621674394
1.1961782178217821,807.3183344408469,807.0145104200942,0.11388287444667088,0.26768207346782413,0.2263179265321759,0.3547194666975629,2127.7364354689685,4380.758659243747
1.2168019801980199,808.5320990063688,808.137833149853,0.11713174208582233,0.26885751848657213,0.22514248151342783,0.35471946669756355,2125.674889714742,4408.175627212611
1.2374257425742574,809.8331613294615,809.359018732653,0.12043419217896537,0.2700523497148037,0.22394765028519636,0.35471946669756427,2123.5793435970672,4435.378739489697
1.2786732673267327,812.6470640110258,812.0667464867803,0.1272066867815491,0.2725026480738909,0.22149735192610912,0.3547194666975658,2119.2819055219593,4489.176347725087
1.319920792079208,815.6541406384374,815.0242089242856,0.13421228610380703,0.27503728405827416,0.21896271594172584,0.3547194666975676,2114.8365525120157,4542.207574188348
1.3611683168316833,818.7885191908005,818.1346096662076,0.1414580542187136,0.2776588134597898,0.21634118654021015,0.3547194666975696,2110.2388021101883,4594.51589333985
1.4024158415841586,822.0228728415326,821.3542312954539,0.14893860343144832,0.2803652870026463,0.21363471299735368,0.35471946669757193,2105.492073039742,4646.137698166425
1.4436633663366338,825.3351673550841,824.6578162722939,0.15659582440602154,0.2831356806448946,0.2108643193551054,0.35471946669757465,2100.6332381647617,4697.105134679923
1.4642871287128714,827.0024675687715,826.325458041491,0.1604218584253123,0.284519945296165,0.20948005470383504,0.35471946669757615,2098.2054556066355,4722.352096655634
1.484910891089109,828.6524010892939,827.982632815831,0.16415066908313794,0.2858690343944016,0.20813096560559843,0.35471946669757776,2095.839365438074,4747.444530982507
1.5055346534653467,830.2516999468496,829.5998545780817,0.1676585981611525,0.287138208217053,0.206861791782947,0.3547194666975795,2093.613434098256,4772.38332331974
1.5261584158415842,831.7631615537026,831.1412063916011,0.1708167771040527,0.28828084193410797,0.20571915806589208,0.3547194666975813,2091.60943420846,4797.16759267465
1.5467821782178217,833.1635801509548,832.5793995931865,0.1735601949114614,0.28927341447144306,0.2047265855285569,0.35471946669758325,2089.8686180346103,4821.794987505961
1.5674059405940595,834.4532262844155,833.9075437677049,0.17591256677334377,0.290124506019146,0.20387549398085397,0.3547194666975853,2088.375937272309,4846.262691169734
1.5880297029702972,835.6485834526085,835.1366581829603,0.17794732039476466,0.29086068282729005,0.20313931717270994,0.3547194666975875,2087.0847988957908,4870.568414712185
1.6086534653465347,836.7708018287898,836.2858130391639,0.1797434200944297,0.291510514300785,0.202489485699215,0.35471946669758986,2085.945096660652,4894.710852969566
1.6224026402640266,837.4879562387832,837.0172020723029,0.18084115328285694,0.29190767575873333,0.20209232424126664,0.35471946669759147,2085.2485379068867,4910.71490560313
1.6361518151815184,838.1859520695753,837.7268238774046,0.18187739129101935,0.2922825881713687,0.2017174118286313,0.35471946669759313,2084.5910004805073,4926.646343497236
1.64990099009901,838.8687282083566,838.41900136839,0.1828645020335464,0.2926397262681224,0.20136027373187762,0.35471946669759485,2083.9646364096275,4942.505411449497
1.6636501650165016,839.5395273104198,839.0973466053267,0.18381250110939992,0.29298271370720924,0.20101728629279078,0.35471946669759663,2083.3630903674666,4958.292459345064
1.6773993399339935,840.2010071348323,839.7648435060678,0.18472951991602965,0.2933144924400071,0.20068550755999287,0.3547194666975984,2082.7812026338543,4974.007920303321
1.6911485148514853,840.8553472640095,840.4239464263959,0.18562219697619844,0.29363746429366955,0.20036253570633047,0.3547194666976003,2082.2147607815887,4989.652292769035
1.704897689768977,841.5043417374775,841.0766748621548,0.186495990529671,0.293953604067251,0.20004639593274892,0.35471946669760224,2081.6603013236154,5005.226126108721
1.7186468646864688,842.1494755166977,841.7246961788389,0.18735542306557812,0.29426454800387136,0.1997354519961286,0.35471946669760424,2081.1149545467592,5020.730009132343
1.7323960396039604,842.7919859206278,842.369394353412,0.18820427105839155,0.29457166243746563,0.19942833756253436,0.35471946669760634,2080.5763241161194,5036.164560976172
1.7461452145214522,843.4329112976505,843.0119255285714,0.1890457120362408,0.2948760970023146,0.19912390299768537,0.35471946669760845,2080.042393753918,5051.530423857868
1.759894389438944,844.073129352163,843.6532622438671,0.18988243893958082,0.2951788260081764,0.19882117399182359,0.3547194666976106,2079.511454674024,5066.8282573035885
1.7736435643564357,844.7133872979168,844.2942284112038,0.19071674955374013,0.29548068079711187,0.1985193192028881,0.3547194666976129,2078.982048833171,5082.058733529546
1.7873927392739273,845.3543256455771,844.9355269322461,0.19155061696915837,0.2957823752361007,0.19821762476389929,0.3547194666976152,2078.452924220913,5097.222533730227
1.8011419141914191,845.9964971284123,845.5777615941523,0.19238574584455206,0.2960845260731361,0.19791547392686387,0.3547194666976176,2077.9229991582383,5112.320345081989
1.808016501650165,846.3181980173104,845.8993960566881,0.19280425484686126,0.29623594323649904,0.19776405676350095,0.35471946669761883,2077.657437260173,5119.844720711104
1.814891089108911,846.6403835049827,846.2214555434763,0.19322362497234247,0.2963876719554731,0.19761232804452686,0.3547194666976201,2077.39132894255,5127.3528583265115
1.8217656765676566,846.9631097849923,846.5439982850465,0.19364403697687071,0.2965397776277959,0.1974602223722041,0.35471946669762133,2077.1245595080195,5134.84484454839
1.8286402640264026,847.2864524461654,846.8670930375453,0.19406576135691103,0.29669235811948025,0.19730764188051975,0.3547194666976226,2076.856957314982,5142.3207661884235
1.8355148514851485,847.6105928131083,847.1908733410262,0.19448953790991752,0.2968456810903169,0.19715431890968307,0.35471946669762394,2076.588052930247,5149.780710980452
1.8423894389438944,847.9361365064555,847.5157437306486,0.1949179584457433,0.2970006842608657,0.19699931573913432,0.3547194666976252,2076.316201739385,5157.224770933738
1.8458267326732674,848.0998446158175,847.678868465219,0.19513564547139914,0.29707944374212847,0.19692055625787147,0.3547194666976259,2076.178069992163,5160.940876216203
1.8492640264026403,848.2641593910748,847.8425025593469,0.19535540036605717,0.29715895138139226,0.19684104861860777,0.3547194666976266,2076.038626093435,5164.653050844301
1.850982673267327,848.3457582729892,847.9240991452582,0.1954623660249881,0.29719765171176316,0.19680234828823687,0.35471946669762694,2075.9707517986008,5166.507667174648
1.8527013201320133,848.4248271225377,848.0043627823726,0.1955574302192542,0.29723204607497566,0.19676795392502436,0.3547194666976273,2075.91042949316,5168.361299152119
1.8535606435643563,848.4626997104812,848.0435710577367,0.19559729792879516,0.2972464702700471,0.19675352972995297,0.35471946669762744,2075.885131722839,5169.287742577632
1.8544199669966996,848.499517910942,848.0821491239445,0.19563242765164301,0.2972591802546685,0.19674081974533145,0.3547194666976276,2075.862840408133,5170.213935183547
1.8561386138613862,848.5711860234046,848.1579411250353,0.19569435781526978,0.29728158667759175,0.19671841332240825,0.35471946669762794,2075.8235430651616,5172.065562711019
1.8578572607260728,848.6416710948691,848.2326046369403,0.1957521241040166,0.2973024866045509,0.19669751339544916,0.35471946669762827,2075.7868878792547,5173.916175902871
1.8595759075907592,848.7116797213181,848.3065152897259,0.1958090245977703,0.297323073285627,0.19667692671437298,0.3547194666976286,2075.7507820773744,5175.765773331208
1.8630132013201322,848.8509238210822,848.4525726512139,0.19592288002246308,0.297364266343232,0.19663573365676806,0.3547194666976293,2075.6785359308888,5179.46192123539
1.869887788778878,849.1273228567444,848.7392211621085,0.1961525166701689,0.29744734921506416,0.19655265078493586,0.3547194666976307,2075.5328216363487,5186.842044123348
1.88363696369637,849.6754730638092,849.2988623278487,0.19661922998774856,0.2976162067695279,0.19638379323047211,0.35471946669763355,2075.2366720343457,5201.55377555283
1.8973861386138615,850.2218670008016,849.8500625069111,0.1970957176867991,0.29778860070936863,0.19621139929063133,0.3547194666976365,2074.9343201683964,5216.2012567167985
1.9111353135313534,850.7694826131476,850.3992183735458,0.19758230115139017,0.2979646473118085,0.19603535268819153,0.3547194666976395,2074.6255621065366,5230.785098397088
1.9248844884488452,851.3198431799108,850.9495071143976,0.19807939874122732,0.29814449793999503,0.19585550206000507,0.35471946669764254,2074.310132381602,5245.305961238914
1.9386336633663368,851.8737619169144,851.5025426947942,0.19858745187610227,0.2983283123002482,0.1956716876997518,0.3547194666976457,2073.987750893818,5259.7645262819215
1.9523828382838284,852.4317077502463,852.0591814563259,0.19910691137174372,0.2985162534983521,0.19548374650164793,0.354719466697649,2073.658131581284,5274.1614807862925
1.9661320132013202,852.9939830881365,852.6199131076937,0.1996382323639667,0.29870848620310375,0.19529151379689627,0.3547194666976523,2073.3209856408193,5288.497511480518
1.9798811881188119,853.5608100452308,853.1850502731655,0.20018187211950594,0.29890517585427034,0.19509482414572962,0.3547194666976557,2072.9760229170824,5302.773301390899
2.0005049504950496,854.4199810952449,854.0415017646005,0.20102143274510817,0.299208930104949,0.19479106989505102,0.354719466697661,2072.4432857189686,5324.07551608013
2.0211287128712874,855.2903554882218,854.9089857539365,0.20189129445368814,0.29952364733134845,0.19447635266865157,0.3547194666976665,2071.891321185087,5345.2459761787795
2.0417524752475247,856.1724545491844,855.7880452344718,0.2027930153941063,0.2998498912739838,0.1941501087260162,0.35471946669767224,2071.3191406032083,5366.286914711764
2.0623762376237624,857.066792443124,856.6792016277167,0.2037281620453622,0.3001882286872266,0.19381177131277338,0.35471946669767823,2070.725749975273,5387.200534673111
2.083,857.9738850034489,857.5829730343011,0.2046983119203346,0.30053923031752194,0.19346076968247808,0.35471946669768445,2070.110148301751,5407.98900986287
2.103623762376238,858.8942533806847,858.499881020229,0.20570505657475366,0.30090347199203865,0.19309652800796137,0.35471946669769094,2069.4713256723226,5428.6544859133355
2.1242475247524757,859.8284260056166,859.4304536152106,0.20675000484915143,0.3012815357916121,0.1927184642083879,0.3547194666976977,2068.8082612087196,5449.199081376585
2.144871287128713,860.7769400397867,860.3752270967288,0.20783478632700703,0.301674011301906,0.192325988698094,0.35471946669770477,2068.1199208703856,5469.624888832932
2.1654950495049503,861.7403427045359,861.3347474196129,0.20896105499735237,0.30208149693854836,0.19191850306145164,0.3547194666977121,2067.405255130394,5489.933976008873
2.186118811881188,862.7191926171804,862.3095715763216,0.21013049310823967,0.3025046013413216,0.1914953986586784,0.35471946669771975,2066.6631965302604,5510.128386902556
2.206742574257426,863.7140611726461,863.3002689790208,0.2113448151873178,0.30294394482881304,0.19105605517118693,0.35471946669772775,2065.89265712871,5530.210142917712
2.2273663366336636,864.7255339776457,864.3074228884091,0.21260577219920457,0.3034001609025582,0.19059983909744174,0.3547194666977361,2065.0925258636535,5550.1812440077365
2.2479900990099013,865.7542123335427,865.3316318915653,0.21391515580575213,0.30387389778841095,0.19012610221158904,0.3547194666977448,2064.2616658488587,5570.043669831464
2.2686138613861386,866.8007147593238,866.3735114224895,0.21527480269037086,0.30436582000108997,0.18963417999891,0.3547194666977539,2063.398911629987,5589.799380921945
2.2892376237623764,867.8656785455257,867.4336953167052,0.21668659891050962,0.30487660991891286,0.18912339008108714,0.3547194666977634,2062.503066422757,5609.45031986909
2.309861386138614,868.9497613296193,868.512837390573,0.21815248424226727,0.30540696935568235,0.18859303064431762,0.3547194666977733,2061.5728993560997,5628.99841251672
2.3304851485148514,870.053642684787,869.6116130368313,0.21967445648736983,0.3059576211189574,0.18804237888104258,0.35471946669778365,2060.6071427392,5648.445569174172
2.351108910891089,871.1780257150297,870.730720828987,0.22125457571570287,0.3065293105450071,0.18747068945499296,0.3547194666977945,2059.604489369427,5667.793685842382
2.371732673267327,872.3235863230238,871.8708461252621,0.22289475779262555,0.30712273079669394,0.18687726920330602,0.35471946669780585,2058.563723548102,5687.044644712755
2.3923564356435643,873.4911269929387,873.0327591967873,0.22459743006911342,0.3077387600931178,0.18626123990688223,0.3547194666978178,2057.483305017002,5706.200315511196
2.412980198019802,874.6814478265455,874.2172631312313,0.22636489567185183,0.30837823170885,0.18562176829115007,0.3547194666978302,2056.3617723435386,5725.262559183511
2.4336039603960398,875.8953607631327,875.4251678048796,0.22819948987922936,0.30904199055099474,0.18495800944900528,0.35471946669784327,2055.1976436934915,5744.233227467403
2.454227722772277,877.1337080076372,876.6573102896384,0.23010363368217296,0.30973091253757684,0.1842690874624231,0.3547194666978569,2053.9893828443605,5763.1141640464575
2.474851485148515,878.397365003898,877.9145597925432,0.23207983658709302,0.3104459056116515,0.1835540943883485,0.35471946669787124,2052.7353974067782,5781.907205844308
2.4954752475247526,879.6872423426018,879.1978201854522,0.23413069950320792,0.3111879107859419,0.18281208921405817,0.3547194666978863,2051.4340369923784,5800.614184356549
2.5160990099009903,881.0042873647533,880.5080318046457,0.23625891767944027,0.3119579032054129,0.18204209679458713,0.3547194666979021,2050.083591350209,5819.236926998463
2.536722772277228,882.3494857020092,881.8461730533814,0.23846728367375247,0.31275689322158123,0.18124310677841876,0.3547194666979187,2048.6822884825606,5837.777258462784
2.5573465346534654,883.7238628299875,883.2132619759153,0.24075869034242203,0.31358592747403913,0.1804140725259609,0.35471946669793614,2047.228292748147,5856.237002086809
2.5710957095709572,884.656849803217,884.1412579891461,0.24233390373808086,0.3141558419627185,0.17984415803728152,0.35471946669794824,2046.2287523394562,5868.49962719643
2.584844884488449,885.6036051103472,885.0829139259193,0.24394826740581033,0.3147399210765528,0.17926007892344714,0.3547194666979608,2045.2043694052675,5880.7277863864265
2.598594059405941,886.5644641639292,886.0385628558162,0.24560271660262456,0.31533850319288487,0.17866149680711513,0.3547194666979738,2044.154550484923,5892.922020664879
2.6123432343234327,887.5397713262388,887.0085467624126,0.2472982083621352,0.3159519345678618,0.17804806543213825,0.3547194666979872,2043.078688299581,5905.082871688046
2.626092409240924,888.5298801366104,887.9932167716244,0.24903572187990305,0.31658056947585606,0.17741943052414394,0.3547194666980011,2041.9761615076925,5917.210881947121
2.639841584158416,889.5351535422533,888.9929333837492,0.2508162588936833,0.3172247703470388,0.17677522965296116,0.3547194666980155,2040.8463344637196,5929.306594956356
2.653590759075908,890.5559641322998,890.0080667090252,0.2526408440572297,0.3178849079026227,0.17611509209737733,0.3547194666980304,2039.6885569809424,5941.370555442586
2.6673399339933996,891.5926943747633,891.0389967064657,0.2545105253061821,0.3185613612872404,0.17543863871275966,0.3547194666980459,2038.5021640992857,5953.4033095362365
2.681089108910891,892.645736855964,892.0861134256762,0.25642637421438663,0.3192545181978617,0.17474548180213825,0.35471946669806187,2037.2864758592198,5965.405404963863
2.6948382838283833,893.7154945218259,893.1498172512793,0.25838948633878206,0.31996477500857456,0.17403522499142537,0.35471946669807847,2036.0407970829137,5977.377391242241
2.7085874587458747,894.8023809201763,894.2305191494534,0.2604009815507013,0.3206925368904495,0.17330746310955047,0.3547194666980957,2034.7644171640136,5989.319819874048
2.7223366336633665,895.9068204427601,895.3286409159355,0.26246200435103406,0.3214382179255666,0.17256178207443348,0.35471946669811355,2033.456609867654,6001.233244545136
2.7360858085808584,897.029248564979,896.4446154245742,0.2645737241660931,0.3222022412140598,0.1717977587859402,0.3547194666981321,2032.1166331427212,6013.118221323354
2.7498349834983498,898.170280941521,897.5788738387403,0.2667380651951573,0.32298503887973123,0.1710149611202687,0.3547197307524361,2030.7432660023073,6024.975308704711
2.7635841584158416,899.3346406579872,898.7334138955526,0.26897111041661337,0.3237870493570993,0.1702129506429007,0.35472563927138856,2029.3263031073552,6036.805107324334
2.7773333333333334,900.527079661558,899.9131513966673,0.27128348738704444,0.3246087262853106,0.1693912737146894,0.3547405836812113,2027.8590008177466,6048.608326520317
2.7910825082508253,901.7499059159026,901.1216064787142,0.2736782583486417,0.32545055121207395,0.16854944878792608,0.354765190357857,2026.339416009572,6060.385735009939
2.804831683168317,903.0049399894201,902.3611140088066,0.2761586904937215,0.32631302663625766,0.16768697336374233,0.35480013887737055,2024.765475509284,6072.138134431455
2.818580858085809,904.2938301270143,903.6335269102487,0.2787282343996351,0.32719667130461993,0.1668033286953801,0.35484615891687904,2023.1349897776715,6083.866352419655
2.8323300330033003,905.6181939058513,904.940530102252,0.2813905189091566,0.32810201806738215,0.16589798193261787,0.3549040305467338,2021.4456561584725,6095.571240307819
2.846079207920792,906.9796827575516,906.2837818523557,0.2841493532510176,0.329029612742002,0.16497038725799798,0.35497458613395105,2019.6950575328042,6107.253672899379
2.859828382838284,908.3800116721706,907.6649787408493,0.2870087319409713,0.32998001316944264,0.16401998683055738,0.3550587130591546,2017.8806592092276,6118.9145491715835
2.8735775577557754,909.8209719577321,909.0858867740673,0.2899728397495269,0.3309537878391418,0.1630462121608582,0.35515735688893935,2015.9998057715072,6130.554793387939
2.8873267326732677,911.3044330874277,910.5483572736598,0.29304605396638445,0.33195151324350614,0.16204848675649386,0.3552715248406541,2014.0497196417307,6142.175356341193
2.901075907590759,912.8323322120209,912.0543354113425,0.2962329392861747,0.3329737683490695,0.1610262316509305,0.35540228946089564,2012.0275043255242,6153.777216499987
2.9148250825082513,914.4066416261742,913.6058642180378,0.29953822547835074,0.33402112267034473,0.15997887732965524,0.3555507924725916,2009.930158581466,6165.361380731019
2.9285742574257427,916.0292893280977,915.2050841766471,0.3029667456312811,0.33509410994551786,0.15890589005448205,0.3557182487559298,2007.7546156078538,6176.928883946012
2.9423234323432346,917.701974323975,916.8542262866634,0.3065232833913262,0.33619316878524064,0.15780683121475939,0.35590595043044226,2005.4978399760582,6188.480786246808
2.956072607260726,919.4257408654804,918.5555921687246,0.3102122078633914,0.3373185064239534,0.1566814935760466,0.3561152710101732,2003.1570593017698,6200.018164335024
2.969821782178218,921.1999985804855,920.3114960058355,0.3140366123284728,0.3384697829146396,0.15553021708536038,0.35634766959568503,2000.730310765627,6211.542089772953
2.9835709570957096,923.0203013969082,922.1240388395605,0.31799632362581154,0.3396453870229739,0.1543546129770261,0.3566046947714897,1998.217704245553,6223.053577283847
2.990445544554456,923.9441833076817,923.0519229858737,0.3200249833684478,0.34024110274712305,0.1537588972528769,0.35674295108131376,1996.9304326962897,6228.804931481342
2.997320132013202,924.8736043766914,923.9940186933743,0.3220835880861958,0.34084087488410614,0.15315912511589388,0.35688798511368314,1995.6241597769622,6234.5534665859595
3.004194719471948,925.8041969487504,924.9494681057848,0.324168692113556,0.3414432408378026,0.15255675916219735,0.35704001281794845,1994.301071910001,6240.299220266841
3.0110693069306933,926.7299044232898,925.9161803704661,0.32627530299250895,0.3420461790643003,0.15195382093569973,0.35719924945947773,1992.9643370239821,6246.042178487267
3.0179438943894388,927.6429405068451,926.8899060546534,0.3283968434231452,0.3426471031711564,0.15135289682884362,0.3573659017540772,1991.6181286975818,6251.782258623033
3.0248184818481847,928.5342918991287,927.8632225324006,0.330525631009559,0.34324304886843715,0.1507569511315629,0.3575401544897119,1990.2673217402487,6257.519294775535
3.0316930693069306,929.3949624891089,928.8251501449247,0.33265406472825054,0.3438311215613337,0.1501688784386663,0.3577221521998762,1988.916739327151,6263.253031795548
3.0385676567656765,930.2177663755855,929.7623445153275,0.33477631622749443,0.3444091264220305,0.14959087357796952,0.3579119810062874,1987.570079797245,6268.9831347172485
3.0454422442244224,930.9989703164225,930.6620305519165,0.3368898175278949,0.34497611559564734,0.14902388440435269,0.3581096596651599,1986.2289726435138,6274.7092157302
3.0523168316831684,931.7389851974278,931.515354367035,0.33899575814870747,0.3455325607862314,0.14846743921376857,0.3583151468422364,1984.89266306501,6280.430872893357
3.0591914191419143,932.4418455466887,932.3192879413406,0.34109839295217426,0.34608008065943857,0.14791991934056142,0.35852836328718474,1983.5584511692903,6286.147729244677
3.06606600660066,933.1139072087184,933.0763585777727,0.34320367379445604,0.3466209176246441,0.14737908237535594,0.3587492199808116,1982.2225602485407,6291.859462098998
3.072940594059406,933.762435590846,933.792926358671,0.3453179126198669,0.34715742966842333,0.14684257033157666,0.3589776426071389,1980.8809851035821,6297.565818306867
3.079815181518152,934.3945332873616,934.4771679619906,0.34744688751385294,0.34769175115209844,0.14630824884790158,0.3592135873245303,1979.5300592915669,6303.266617020655
3.086689768976898,935.0165243015314,935.1375014514883,0.3495954369751026,0.3482256390656024,0.14577436093439758,0.359457047718888,1978.1667125777126,6308.961744212885
3.093564356435644,935.6337114813823,935.7816425964483,0.35176739940675944,0.3487604506117545,0.14523954938824551,0.35970805532721134,1976.7885093307223,6314.651143170591
3.10043894389439,936.25036962024,936.416182935811,0.35396573210449483,0.34929718942060256,0.14470281057939746,0.35996667647331054,1975.3935730197506,6320.334803971901
3.1073135313531353,936.8698581866806,937.0465037229619,0.3561926919358742,0.34983657566439563,0.14416342433560436,0.3602330075228918,1973.9804715656048,6326.012753649797
3.1210627062706275,938.1271263290693,938.3105861046788,0.36073906236754183,0.35092516114976574,0.14307483885023428,0.36078930544640253,1971.0956046822648,6337.351763941716
3.134811881188119,939.4199408275844,939.5977107005893,0.365416587278218,0.35202865941945655,0.14197134058054345,0.36137814246611216,1968.1275146610874,6348.668849674042
3.1485610561056103,940.757036658018,940.9219589238126,0.370232399341548,0.3531482380859662,0.14085176191403384,0.36200093158118124,1965.0716755149588,6359.964896024462
3.1623102310231026,942.1441246633236,942.2918693706046,0.37519238865765514,0.3542844670101983,0.13971553298980174,0.36265923397746413,1961.9243497229181,6371.2409130776605
3.176059405940594,943.5854214965439,943.7130654597323,0.380301999248916,0.3554376469844072,0.13856235301559283,0.36335471851788953,1958.682082819452,6382.4979923770525
3.189808580858086,945.0844687018027,945.1897431995804,0.38556657680582224,0.35660795737243295,0.13739204262756705,0.36408913991718206,1955.3414827348427,6393.737286017444
3.2035577557755777,946.6445503550189,946.7254607566889,0.3909915112629861,0.35779551925415887,0.13620448074584113,0.3648643271816101,1951.8991293245813,6404.959997461674
3.2173069306930695,948.2688983117783,948.3235387409151,0.39658228967815384,0.3590004209693165,0.1349995790306835,0.365682177196884,1948.351540815368,6416.167378198488
3.2310561056105613,949.9607899587976,949.9872559972397,0.40234451070849375,0.36022272750203455,0.13377727249796548,0.3665446505811499,1944.6951646192877,6427.360727210542
3.244805280528053,951.7235932083736,951.7199423836213,0.4082838823275719,0.3614624831007638,0.13253751689923626,0.36745376823906284,1940.9263787824843,6438.541391749089
3.2585544554455446,953.560786015626,953.5250211404426,0.4144062114136734,0.36271971110162404,0.13128028889837598,0.36841160777147947,1937.0414985918208,6449.710768688523
3.272303630363036,955.4759634855487,955.4060269299887,0.4207173883585877,0.36399441257135456,0.1300055874286454,0.36942029926394376,1933.0367863412607,6460.870306112594
3.2860528052805282,957.4728385805145,957.3666119751628,0.42722336762059876,0.36528656440190216,0.1287134355980978,0.37048202015614284,1928.908463671832,6472.021504961979
3.29980198019802,959.5552390475043,959.410545981035,0.43393014427120435,0.36659611709079953,0.1274038829092005,0.37159898897609767,1924.6527264537378,6483.165920652969
3.313551155115512,961.727101594483,961.5417122926668,0.44084372624962415,0.3679229922861897,0.1260770077138103,0.37277345775677867,1920.26576239206,6494.305164611015
3.3273003300330033,963.9924636120155,963.7641012325086,0.4479701019110578,0.369267080117004,0.124732919882996,0.37400770296484187,1915.7437716187806,6505.440905675329
3.341049504950495,966.3554523993706,966.081800865206,0.4553152024056759,0.37062823630794167,0.12337176369205831,0.3753040147743125,1911.0829905649239,6516.574871333697
3.354798679867987,968.8202716975621,968.4989851181695,0.46288485840931304,0.37200627907215794,0.12199372092784204,0.376664684519,1906.2797194167877,6527.70884874492
3.368547854785479,971.391185256591,971.0198990373834,0.4706847507295816,0.37340098577314346,0.1205990142268566,0.37809199015983797,1901.330353458478,6538.8446855026805
3.3822970297029706,974.0724971273576,973.6488408866147,0.4787203543301591,0.3748120893480178,0.1191879106519822,0.3795881796094971,1896.2314185909,6549.984290089869
3.3960462046204625,976.8685283524053,976.3901407638857,0.48699687535316355,0.3762392744863297,0.1177607255136703,0.3811554517681898,1890.9796112937597,6561.129631967326
3.409795379537954,979.7835897273198,979.2481353952137,0.49551918077804513,0.3776821735611615,0.11631782643883844,0.38279593514305005,1885.5718432600113,6572.282741235535
3.4235445544554457,982.8219503147606,982.2271387663641,0.5042917204390052,0.3791403623128707,0.11485963768712934,0.38451166395018127,1880.0052908791465,6583.445707802587
3.4372937293729375,985.9878014165431,985.3314082676811,0.5133184412352767,0.3806133552902085,0.11338664470979153,0.3863045516346928,1874.2774496744498,6594.620679986632
3.451042904290429,989.2852157476739,988.5651060560195,0.522602693513024,0.3821006010589443,0.1118993989410557,0.3881763617909113,1868.3861937076927,6605.809862476553
3.4647920792079208,992.7181016118386,991.93225538339,0.5321471297767784,0.38360147719455095,0.11039852280544905,0.3901286765233465,1862.3298398510722,6617.0155135707455
3.4785412541254126,996.2901519526491,995.4366917063895,0.5419535961038467,0.3851152850830601,0.10888471491693993,0.3921628623594109,1856.1072166894191,6628.239941611186
3.4922904290429044,1000.0047882506796,999.082008475978,0.5520230168870712,0.3866412445629034,0.10735875543709662,0.3942800339073423,1849.7177376558582,6639.4855005286045
3.5060396039603963,1003.8650993541312,1002.871497615412,0.5623552738177768,0.388178488450423,0.10582151154957703,0.39648101554654863,1843.1614778223143,6650.754584414961
3.519788778877888,1007.8737754711267,1006.8080848261652,0.5729490803373457,0.3897260570027171,0.10427394299728288,0.39876630154115955,1836.4392535653683,6662.049621041981
3.5335379537953795,1012.0330377132912,1010.8942600174752,0.5838018531253729,0.39128289238348113,0.10271710761651891,0.4011360150784149,1829.5527041125313,6673.37306424948
3.5472871287128713,1016.3445637611137,1015.1320033333873,0.5949095825443858,0.392847833210328,0.10115216678967198,0.4035898668480546,1822.504373750621,6684.72738513516
3.561036303630363,1020.8094104176995,1019.52270744891,0.6062667043119803,0.3944196092754811,0.09958039072451892,0.40612711389242045,1815.2977932552924,6696.115061988541
3.5747854785478546,1025.4279340232129,1024.067097019358,0.6178659750042559,0.3959968365453684,0.0980031634546316,0.4087465195638228,1807.937558889442,6707.538568926237
3.588534653465347,1030.1997099100972,1028.7651463874058,0.6296983542902399,0.3975780125580989,0.09642198744190109,0.4114463155193095,1800.429407130516,6719.000363203753
3.6022838283828382,1035.1234522799305,1033.6159968721709,0.6417528970346184,0.39916151235053077,0.09483848764946923,0.41422416675620843,1792.7802831359475,6730.502871200561
3.6160330033003305,1040.1969360661,1038.6178751734121,0.6540166585640496,0.4007455850580777,0.0932544149419223,0.41707714073753704,1784.9984008557435,6742.048473100157
3.629782178217822,1045.416922501149,1043.7680146099835,0.6664746164502097,0.4023283513398699,0.0916716486601301,0.42000168166783325,1777.093292664494,6753.639486314819
3.6435313531353137,1050.7790902223658,1049.0625810627166,0.6791096121031523,0.4039078017887268,0.09009219821127314,0.42299359095157585,1769.0758464228884,6765.278147735293
3.6572805280528056,1056.2779738133684,1054.4966055956593,0.6919023152787203,0.40548179648890276,0.08851820351109728,0.42604801479416937,1760.9583279992828,6776.966594917954
3.6710297029702974,1061.906911684253,1060.0639257750836,0.7048312142775203,0.4070480658841003,0.08695193411589971,0.42915943978790466,1752.754387488873,6788.70684635524
3.6847788778877892,1067.658005131834,1065.7571376837495,0.7178726341517967,0.40860421311322864,0.08539578688677137,0.43232169716347496,1744.47904766065,6800.500781008208
3.698528052805281,1073.5220902915555,1071.5675605327208,0.7310007846505935,0.4101477179613623,0.08385228203863777,0.43552797618564526,1736.1486735341418,6812.350117311891
3.7122772277227725,1079.4887244943197,1077.485215602286,0.7441878389414175,0.411675942558053,0.082324057441947,0.43877084693655266,1727.7809224271443,6824.256391893449
3.726026402640264,1085.5461882792317,1083.4988209992653,0.7574040433745256,0.41318613893446315,0.08081386106553683,0.4420422924714512,1719.394674305576,6836.220938268762
3.7397755775577557,1091.6815039951962,1089.5958034064574,0.7706178577361371,0.4146754585248659,0.07932454147513407,0.4453337500610271,1711.0099427868035,6848.244865804056
3.7535247524752475,1097.8774936447842,1095.7595913393961,0.7837891064652798,0.41614018563919386,0.07785981436080616,0.4486343998191822,1702.6522209860746,6860.335528411613
3.7672739273927394,1104.1099035653517,1101.9666402339142,0.7968633230408046,0.4175751609716973,0.07642483902830273,0.4519296949854043,1694.3560702453362,6872.5123049276335
3.781023102310231,1110.3613388804354,1108.1994359538894,0.8098043280847167,0.41897738035620624,0.07502261964379378,0.4552095499744888,1686.1444479304723,6884.7769020867
3.794772277227723,1116.6144170109371,1114.4406189114256,0.8225769147625592,0.4203440007847229,0.07365599921527717,0.45846406991072014,1678.039694286809,6897.129364150968
3.8085214521452144,1122.8511524038934,1120.6722600613634,0.8351456370227337,0.42167219296714764,0.0723278070328524,0.46168325965137563,1670.0643013532033,6909.5694213044435
3.8222706270627067,1129.0530427967042,1126.875890558428,0.8474750770430735,0.42295916130129335,0.07104083869870667,0.46485710057927004,1662.2407432557252,6922.096478856297
3.836019801980198,1135.20118907756,1133.032603533048,0.859530108774239,0.424202164577829,0.06979783542217102,0.4679756252481932,1654.5913089780838,6934.709608386829
3.8497689768976904,1141.2764295570041,1139.1231846243995,0.871276154303937,0.425398537220426,0.06860146277957402,0.4710289888957102,1647.1379396875388,6947.40754127376
3.8635181518151818,1147.2594802283902,1145.1282542142221,0.8826794290746696,0.4265457108243634,0.06745428917563666,0.47400753662469275,1639.9020731337332,6960.18866481005
3.8772673267326736,1153.1310763505094,1151.028413567197,0.8937071719713819,0.4276412357455172,0.06635876425448282,0.4769018650603742,1632.9044976482164,6973.051021012815
3.8910165016501654,1158.872111975087,1156.8043903246808,0.9043278565264099,0.4286828024966896,0.06531719750331044,0.4797028773682765,1626.165218125856,6985.992308149876
3.897891089108911,1161.6877756321132,1159.6398570946476,0.9094760844060419,0.4291826733321493,0.06481732666785066,0.4810656428383318,1622.898446897892,6992.491738521357
3.904765676567657,1164.4637743940038,1162.437179879506,0.9145113796185167,0.4296682627062617,0.0643317372937383,0.48240183056714225,1619.7033362872103,6999.009884961272
3.9116402640264027,1167.1978233047728,1165.1940470045663,0.9194302285365616,0.43013933059602516,0.06386066940397489,0.48371040934227133,1616.5821158409,7005.546365374227
3.9185148514851487,1169.8876710107215,1167.9081797941826,0.9242292253956121,0.43059564955646246,0.0634043504435376,0.48499037439814285,1613.5369466625384,7012.100777429181
3.9253894389438946,1172.5311030881132,1170.5773361770225,0.9289050758014828,0.4310370053154044,0.06296299468459554,0.4862407480903366,1610.5699191864246,7018.67269890272
3.9322640264026405,1175.1259451330134,1173.1993140657562,0.9334545997273329,0.4314631973555514,0.06253680264444861,0.4874605803978345,1607.683051275876,7025.261688055491
3.9460132013201323,1180.1613783802134,1178.293144544408,0.9421625342920372,0.4322693604200412,0.0617306395799588,0.4898049606747609,1602.1574935973756,7038.489007316911
3.9597623762376237,1184.9774757239172,1183.1729660268766,0.9503299553790553,0.4330128310791864,0.060987168920813586,0.4920164747977184,1596.9749148853302,7051.778827163565
3.973511551155115,1189.5585305153736,1187.822882633557,0.9579357161684329,0.4336925572961415,0.06030744270385853,0.49408852385345586,1592.1487337032934,7065.126956039582
3.980386138613861,1191.7562344683142,1190.056893935553,0.9615218906246703,0.43400826163439,0.059991738365609955,0.49507030262906204,1589.87315231762,7071.821502985227
3.9872607260726074,1193.8896639253423,1192.2278606186774,0.9649605856333622,0.43430776003903726,0.05969223996096271,0.4960149290604819,1587.6911529619615,7078.528935199826
3.9941353135313533,1195.9570898819866,1194.3340423948446,0.9682496869924366,0.4345910007616891,0.059408999238310875,0.4969216899747368,1585.6040771881421,7085.248656374193
4.001009900990099,1197.956834131417,1196.3737542466408,0.9713871897133594,0.4348579514747459,0.05914204852525415,0.49778989229167003,1583.6131972473142,7091.98005563012
4.00559295929593,1199.2515894309236,1197.6958268363915,0.973393693846306,0.43502686173333965,0.05897313826666033,0.498346938135365,1582.3399843819254,7096.473834915197
4.0101760176017605,1200.5150675135174,1198.9871610498194,0.9753314349662523,0.43518852764691013,0.05881147235308983,0.4988863497663573,1581.1104045952713,7100.972338465887
4.014759075907591,1201.7468056355312,1200.247296605089,0.9771998923795631,0.43534295497412834,0.05865704502587162,0.4994079330382639,1579.9247882897796,7105.475375144007
4.019342134213422,1202.9463490286591,1201.4757827668245,0.9789985624422507,0.43549015384883666,0.0585098461511633,0.49991149559811826,1578.7834550491443,7109.982751260676
4.023925192519252,1204.1132501782033,1202.6721778263704,0.9807269572111329,0.43563013892533686,0.05836986107466316,0.5003968462530685,1577.686714494227,7114.494270633174
4.028508250825083,1205.2470679658488,1203.8360484789623,0.9823846029014734,0.4357629295433011,0.058237070456698924,0.5008637942474381,1576.634867261748,7119.009734637361
4.0330913091309135,1206.3473666567409,1204.9669690847404,0.983971038122132,0.435888549916914,0.05811145008308604,0.5013121484350596,1575.628206124159,7123.528942254829
4.037674367436744,1207.4137147062054,1206.0645207979958,0.9854858118527592,0.4360070293540253,0.05799297064597464,0.5017417163282673,1574.667017273202,7128.051690113774
4.042257425742575,1208.4456833558518,1207.128290545915,0.9869284811194194,0.43611840251263995,0.05788159748736003,0.5021523030004449,1573.751581794823,7132.5777725224425
4.04913201320132,1209.9282393701808,1208.659711333167,0.9889563325896316,0.4362722277938969,0.05772777220610308,0.5027321573190271,1572.4648231290535,7139.372692820886
4.056006600660067,1211.3310303102971,1210.1128373770423,0.9908194937547757,0.4364103179472372,0.0575896820527628,0.5032681615745518,1571.2825675200054,7146.17393577455
4.062881188118812,1212.6525842498236,1211.486304665873,0.992516475670745,0.4365328689230268,0.057467131076973224,0.5037595811145181,1570.2057597665264,7152.980778232032
4.0697557755775575,1213.89138262534,1212.7787357845052,0.9940457351767289,0.43664011554084003,0.057359884459159925,0.5042056228015348,1569.2353790702866,7159.792485270582
4.076630363036304,1215.045829084302,1213.9887192208103,0.9954056280169085,0.4367323382328212,0.05726766176717882,0.5046054113093201,1568.3724687820709,7166.608309762112
4.083504950495049,1216.1142082157835,1215.1147831444307,0.9965943479216783,0.4368098728304833,0.05719012716951677,0.5049579572954008,1567.6181750573553,7173.427491626322
4.090379537953795,1217.0946303693502,1216.155362429739,0.9976098472481604,0.43687312537944756,0.057126874620552416,0.5052621138739957,1566.973797213303,7180.249256667026
4.097254125412541,1217.984958040802,1217.1087585199994,0.9984497359687474,0.43692259580907233,0.05707740419092763,0.5055165164002957,1566.4408518248595,7187.072814851005
4.1006914191419135,1218.3955778711259,1217.5521846280155,0.9988029574663136,0.43694235402641174,0.057057645973588283,0.505624554232517,1566.2167176465898,7190.485014567443
4.104128712871287,1218.7827120378656,1217.9730959406115,0.9991111677425972,0.43695891855850866,0.057041081441491344,0.5057195006249092,1566.021145017276,7193.897357850689
4.10756600660066,1219.145981543913,1218.3712263977068,0.9993739294303997,0.4369724022194131,0.05702759778058691,0.5058010845233363,1565.85441146515,7197.309740260328
4.111003300330033,1219.4849796384947,1218.7463011634156,0.9995907869950127,0.4369829399989966,0.057017060001003345,0.5058690061248092,1565.7168060465076,7200.722055765888
4.113294829482949,1219.6972859683249,1218.9834070366194,0.9997096401750256,0.43698840905692493,0.05701159094307502,0.5059065383196021,1565.6413886100818,7202.996842478795
4.115586358635864,1219.8984970948009,1219.2100695614372,0.9998077981126499,0.4369927019113835,0.0570072980886165,0.5059377591491856,1565.5791031918902,7205.2715192861415
4.1178778877887785,1220.0885123775179,1219.426227897928,0.9998852248342713,0.4369958911922562,0.05700410880774377,0.5059625829683699,1565.5299726187332,7207.5460535571665
4.120169416941693,1220.2672843203582,1219.6318517814473,0.999942030277305,0.4369980676946232,0.057001932305376805,0.5059809587575913,1565.4939271306093,7209.820412463843
4.122460946094609,1220.4349013230858,1219.8269775848453,0.9999786709280007,0.4369993503415431,0.057000649658456914,0.5059929327511775,1565.4706770674293,7212.094563239984
4.123606710671067,1220.5146413630382,1219.920652584208,0.9999897870175432,0.4369997057945588,0.057000294205441185,0.505996599115463,1565.4636234322109,7213.231550506924
4.124752475247525,1220.5918228029495,1220.0117963875402,0.9999965170882654,0.4369999061501404,0.057000093849859594,0.5059988337092192,1565.459352913906,7214.368473866282
4.125516318298496,1220.6419702806566,1220.0711944265613,0.9999988618415393,0.43699997096494186,0.057000029035058124,0.5059996172295492,1565.4578650674644,7215.126385491535
4.126280161349468,1220.691213135985,1220.129547812407,0.9999998471202256,0.436999996434123,0.05700000356587701,0.5059999482356243,1565.4572398659116,7215.884266176878
4.1264711221122115,1220.7034045172695,1220.1439797565315,0.9999999358167899,0.43699999859787636,0.057000001402123635,0.5059999781624164,1565.4571835841405,7216.073731417491
4.1266620828749545,1220.715556381958,1220.1583515264665,0.9999999818446818,0.43699999969596537,0.05700000030403463,0.5059999937172853,1565.4571543774703,7216.263194664176
4.127044004400441,1220.7397634409058,1220.1869205630821,1.0000000000501075,0.43700000011876444,0.056999999881235545,0.5059999998812356,1565.4571428253478,7216.642115141638
4.127807847451412,1220.7878996394538,1220.243398516137,1.0000000000501075,0.43700000011649165,0.05699999988350837,0.5059999998835084,1565.4571428253478,7217.399931861007
4.1293355335533555,1220.8831893145762,1220.3539035957253,1.0000000000501075,0.437000000111939,0.05699999988806099,0.505999999888061,1565.4571428253478,7218.915467235258
4.130863219655299,1220.9772965012228,1220.461458747434,1.0000000000501075,0.43700000010737716,0.05699999989262282,0.5059999998926228,1565.4571428253478,7220.430869910391
4.1323909057572425,1221.0703589587781,1220.566406556745,1.0000000000501075,0.4370000001028062,0.05699999989719378,0.5059999998971938,1565.4571428253478,7221.9461378001315
4.133918591859186,1221.1624984786552,1220.669049895277,1.0000000000501075,0.4370000000982262,0.05699999990177381,0.5059999999017738,1565.4571428253478,7223.461269073393
4.138501650165017,1221.434394856625,1220.9656782572067,1.0000000000501075,0.4370000000844322,0.056999999915567805,0.5059999999155678,1565.4571428253478,7228.005828118405
4.145376237623763,1221.8331855896847,1221.3879482087887,1.0000000000501075,0.4370000000635913,0.05699999993640872,0.5059999999364088,1565.4571428253478,7234.820265811828
4.1522508250825085,1222.2253366062682,1221.793516892436,1.0000000000501075,0.43700000004257206,0.056999999957427945,0.505999999957428,1565.4571428253478,7241.631764216245
4.166,1223.0,1222.5801139336031,1.0000000000501075,0.437,0.057,0.506,1565.4571428253478,7255.2458203114165
