z,T,t,fs,x,y,w,rhob,p
0.0,526.9271092796849,298.0,0.0,0.22880648698891004,0.2446938426052689,0.37423465988709914,2200.0,2040.0
0.0034891122278056953,545.4588909633204,337.14928932518524,4.784533180982417e-06,0.22880828817033344,0.2446920414238455,0.37423465988709914,2199.996964008645,2046.344733406206
0.0069782244556113905,566.5478088962823,381.93711297084195,9.588202343712856e-06,0.22881009655567278,0.24469023303850618,0.37423465988709914,2199.99391587469,2053.055911293363
0.008141261864879956,574.1980444875109,398.24769292816836,1.1193838512113003e-05,0.2288107010121432,0.24468962858203575,0.37423465988709914,2199.9928970297283,2055.384340855025
0.008213951702959242,574.6870151925702,399.29135353453813,1.12942657232115e-05,0.22881073881888844,0.2446895907752905,0.37423465988709914,2199.9928333043586,2055.5314885623807
0.008286641541038527,575.1771203083531,400.3375577527725,1.1394810125612076e-05,0.22881077666975141,0.24468955292442754,0.37423465988709914,2199.9927695046263,2055.678830512416
0.008432021217197097,576.1537875029311,402.4219956823227,1.1601075223974654e-05,0.2288108543201406,0.24468947527403836,0.37423465988709914,2199.9926386205816,2055.974096955645
0.008722780569514237,578.0877089511102,406.5472519550837,1.2038644371119441e-05,0.22881101904706158,0.24468931054711737,0.37423465988709914,2199.9923609642046,2056.5669427844605
0.00901353992183138,579.9960865114589,410.61518032246477,1.2510776490029617e-05,0.22881119678553047,0.24468913280864849,0.37423465988709914,2199.992061376141,2057.1628388686854
0.00930429927414852,581.8793210669605,414.626758940605,1.3018870281988621e-05,0.22881138806210122,0.24468894153207774,0.37423465988709914,2199.9917389688544,2057.7617452163818
0.01163037409268565,596.0856060495073,444.801225075724,1.853890635244774e-05,0.228813466130337,0.24468686346384194,0.37423465988709914,2199.9882362693947,2062.6567179314184
0.013956448911222781,608.8900045662707,471.8686328336844,2.7086232092545647e-05,0.22881668384955026,0.2446836457446287,0.37423465988709914,2199.9828126248985,2067.7227539339706
0.016282523729759912,620.4510256522558,496.20445948353586,3.917787597247775e-05,0.22882123585985326,0.2446790937343257,0.37423465988709914,2199.9751399586435,2072.9423664539563
0.01860859854829704,630.905566189844,518.128103146078,5.519072690656173e-05,0.22882726404453652,0.2446730655496424,0.37423465988709914,2199.964979118461,2078.29965487782
0.02093467336683417,640.3725467695339,537.9133433761051,7.537006826214887e-05,0.22883486074277465,0.2446654688514043,0.37423465988709914,2199.9521744615417,2083.780167520025
0.0232607481853713,648.955808369428,555.7964391617437,9.984794846173135e-05,0.22884407566540804,0.2446562539287709,0.37423465988709914,2199.9366421975033,2089.370773587593
0.025586823003908434,656.7464445120721,571.982484897238,0.00012866438838364094,0.22885492387866366,0.2446454057155153,0.37423465988709914,2199.9183569313827,2095.0595448774634
0.027912897822445562,663.8246971627417,586.6504611072809,0.00016178774585483827,0.22886739347055507,0.24463293612362386,0.37423465988709914,2199.8973387414944,2100.8356471530087
0.030238972640982697,670.2615117804946,599.957293003976,0.00019913260876114333,0.2288814522869081,0.24461887730727086,0.37423465988709914,2199.873641825486,2106.689240819639
0.032565047459519825,676.1198233463045,612.0411449859857,0.00024057472479179114,0.22889705355180004,0.24460327604237891,0.37423465988709914,2199.8473450267743,2112.6113903511746
0.034891122278056956,681.4556280392782,623.0241197443461,0.00028596304544745887,0.22891414040163718,0.24458618919254177,0.37423465988709914,2199.8185441921046,2118.5939818440474
0.03721719709659408,686.3188826076753,633.0144883627595,0.0003351292095154864,0.228932649455296,0.24456768013888294,0.37423465988709914,2199.787346153882,2124.6296480568135
0.03954327191513121,690.7542640863686,642.1085472820776,0.000387894868143708,0.2289525135717144,0.24454781602246456,0.37423465988709914,2199.753864082097,2130.7117003045073
0.04186934673366834,694.801815447295,650.3921756674802,0.0004440772470151991,0.22897366394382343,0.24452666565035552,0.37423465988709914,2199.718213954887,2136.8340666068993
0.045358458961474044,700.2236242492794,661.4637939748948,0.0005343574736949414,0.22900765076365412,0.24449267883052483,0.37423465988709914,2199.660927281906,2146.081289664447
0.04884757118927974,704.9594598017459,671.1092603313195,0.0006313102965536685,0.22904414954355046,0.2444561800506285,0.37423465988709914,2199.599406560681,2155.3904376215364
0.05233668341708543,709.1005815471465,679.5214344201657,0.0007343604818264188,0.22908294373148275,0.2444173858626962,0.37423465988709914,2199.534016801689,2164.747250816037
0.055825795644891124,712.7253748557051,686.8652036269222,0.0008429700580911497,0.22912383080317222,0.24437649879100673,0.37423465988709914,2199.465099370853,2174.139412403916
0.05931490787269682,715.9013470096073,693.2820031711685,0.0009566424670611252,0.22916662382469494,0.24433370576948402,0.37423465988709914,2199.392969355687,2183.5562906181276
0.06280402010050251,718.686771035035,698.8934958534862,0.0010749237618411537,0.22921115190357635,0.2442891776906026,0.37423465988709914,2199.3179148049508,2192.988715538991
0.06629313232830822,721.1320492761414,703.8045928420977,0.0011974019309396223,0.22925725993430945,0.24424306965986947,0.37423465988709914,2199.2401971575932,2202.428785667009
0.06978224455611391,723.2808517731537,708.1059521397319,0.001323705078786167,0.22930480791339392,0.24419552168078504,0.37423465988709914,2199.1600523972925,2211.869700244146
0.0732713567839196,725.171072089755,711.8760589190769,0.0014534989535712709,0.22935367000866863,0.24414665958551032,0.37423465988709914,2199.0776926211465,2221.305613833973
0.0767604690117253,726.8356339641656,715.1829680849391,0.0015864841485933757,0.22940373350573315,0.2440965960884458,0.37423465988709914,2198.9933078155395,2230.731510155901
0.08024958123953099,728.3031751584602,718.0857717053032,0.0017223931907849976,0.22945489771189662,0.24404543188228234,0.37423465988709914,2198.907067703596,2240.143092584661
0.08373869346733669,729.5986295392213,720.6358406308548,0.00186098765344302,0.22950707286923863,0.24399325672494032,0.37423465988709914,2198.8191235772765,2249.5366890829127
0.08722780569514238,730.7437243058954,722.8778794952927,0.002002055378164918,0.2295601791087816,0.24394015048539736,0.37423465988709914,2198.729610060181,2258.909169640914
0.09071691792294807,731.7574060803046,724.8508265121045,0.0021454078558584807,0.22961414546454778,0.24388618412963115,0.37423465988709914,2198.638646769407,2268.2578745599126
0.09420603015075377,732.6562070564538,726.5886234544154,0.0022908777931417794,0.22966890895740838,0.24383142063677057,0.37423465988709914,2198.546339859775,2277.580552141678
0.09769514237855947,733.4545604192149,728.1208764877933,0.00243831687484338,0.22972441375275598,0.24377591584142297,0.37423465988709914,2198.452783443617,2286.875304540787
0.10118425460636517,734.1650726517975,729.4734248039628,0.002587593723151083,0.2297806103922075,0.24371971920197144,0.37423465988709914,2198.358060885787,2296.140540703446
0.10467336683417086,734.7987590742913,730.6688310423767,0.002738592047521983,0.22983745509712097,0.24366287449705798,0.37423465988709914,2198.2622459776167,2305.3749354607203
0.10816247906197655,735.3652479205972,731.7268051126151,0.00289120897557248,0.22989490914024344,0.24360542045393552,0.37423465988709914,2198.165403996043,2314.577393968371
0.11165159128978225,735.8729574169315,732.6645711131792,0.003045353552996265,0.22995293828099164,0.2435473913131873,0.37423465988709914,2198.067592655472,2323.7470207928122
0.11514070351758793,736.3292496321303,733.4971854828068,0.003200945399545562,0.23001151225948366,0.2434888173346953,0.37423465988709914,2197.968862960614,2332.883093035504
0.11862981574539362,736.7405642976755,734.237813243741,0.0033579135078649447,0.23007060434434892,0.24342972524983003,0.37423465988709914,2197.8692599686806,2341.985036968315
0.12211892797319931,737.1125353200166,734.8979681446801,0.0035161951722173963,0.23013019092943726,0.2433701386647417,0.37423465988709914,2197.768823469149,2351.0524077218734
0.12560804020100502,737.4500923108475,735.4877216397227,0.003675735034702516,0.23019025117475905,0.2433100784194199,0.37423465988709914,2197.66758858898,2360.0848716290757
0.12793411501954213,737.6581646869713,735.8461769792455,0.0037827695697756755,0.2302305453077379,0.24326978428644105,0.37423465988709914,2197.5996705892817,2366.0870005664347
0.13026018983807927,737.8540125975272,736.179614303977,0.0038903284423447634,0.23027103683237887,0.24322929276180008,0.37423465988709914,2197.5314198749707,2372.0734583703133
0.1325862646566164,738.0386812621639,736.490167808071,0.003998399667390415,0.2303117212368115,0.24318860835736744,0.37423465988709914,2197.462844051055,2378.0442101564417
0.13491233947515355,738.2131270618778,736.7797900511555,0.0041069722212780995,0.23035259437108738,0.24314773522309158,0.37423465988709914,2197.3939501125037,2383.9992343300546
0.13723841429369069,738.3782251103527,737.0502674782098,0.004216035965496231,0.2303936524184708,0.24310667717570816,0.37423465988709914,2197.324744492637,2389.938521293558
0.13956448911222782,738.534776174743,737.3032345993028,0.004325581576331788,0.23043489186896438,0.24306543772521458,0.37423465988709914,2197.25523310775,2395.862072270046
0.14189056393076496,738.6835130028244,737.54018694753,0.004435600480040807,0.23047630949490358,0.24302402009927537,0.37423465988709914,2197.1854213982506,2401.7698982323996
0.1442166387493021,738.8251061082751,737.762492922587,0.004546084793100883,0.23051790232846403,0.24298242726571492,0.37423465988709914,2197.115314366572,2407.6620189286223
0.1465427135678392,738.9601690611881,737.971404617597,0.004657027267161216,0.23055966764093752,0.24294066195324143,0.37423465988709914,2197.0449166121034,2413.538461994887
0.14886878838637632,739.0892633266983,738.1680677179479,0.004768421238332636,0.23060160292364187,0.24289872667053708,0.37423465988709914,2196.9742323633677,2419.3992621485218
0.15119486320491346,739.2129026907876,738.3535305528881,0.0048802605804853785,0.23064370587033928,0.24285662372383968,0.37423465988709914,2196.903265507657,2425.244460453859
0.1535209380234506,739.3315573088706,738.5287523733914,0.004992539662246326,0.23068597436104768,0.24281435523313127,0.37423465988709914,2196.832019618319,2431.074103654486
0.15584701284198774,739.445657409621,738.6946109232395,0.005105253307409834,0.2307284064471369,0.24277192314704205,0.37423465988709914,2196.760497979878,2436.888243566016
0.15817308766052485,739.5555966836491,738.8519093643355,0.005218396758497272,0.23077100033761053,0.24272932925656843,0.37423465988709914,2196.688703611158,2442.686936524022
0.16049916247906199,739.6617353840461,739.0013826118676,0.005331965643220057,0.23081375438648036,0.2426865752076986,0.37423465988709914,2196.6166392865634,2448.470242882228
0.16282523729759912,739.7644031634602,739.1437031300526,0.0054459559436192745,0.23085666708114888,0.24264366251303007,0.37423465988709914,2196.544307555662,2454.2382265565157
0.16515131211613623,739.8639016702199,739.2794862347433,0.005560363967672082,0.23089973703172023,0.24260059256245872,0.37423465988709914,2196.471710761199,2459.990954610672
0.16747738693467337,739.9605069240735,739.4092949451434,0.005675186323170975,0.23094296296116676,0.2425573666330122,0.37423465988709914,2196.398851055677,2465.7284968801728
0.16980346175321048,740.0544714903323,739.5336444231967,0.005790419893696753,0.23098634369628387,0.24251398589789508,0.37423465988709914,2196.325730416597,2471.450925630633
0.17212953657174765,740.1460264695876,739.6530060358745,0.005906061816519803,0.2310298781593707,0.24247045143480825,0.37423465988709914,2196.252350660483,2477.1583152478283
0.17445561139028476,740.2353833186937,739.7678110725327,0.006022109462276947,0.23107356536057938,0.24242676423359957,0.37423465988709914,2196.17871345578,2482.8507419564967
0.17678168620882187,740.3227355173619,739.8784541467412,0.006138560416283039,0.23111740439087952,0.24238292520329943,0.3742346598870992,2196.1048203347077,2488.5282835653443
0.17910776102735904,740.4082600934811,739.9852963094465,0.0062554124613472765,0.23116139441558928,0.24233893517858968,0.3742346598870992,2196.03067270417,2494.191019235932
0.18143383584589615,740.4921190191593,740.088667898032,0.006372663561974425,0.2312055346684278,0.24229479492575115,0.3742346598870992,2195.9562718557745,2499.839029273312
0.18375991066443328,740.5744604884558,740.1888711437225,0.006490311849840479,0.23124982444604741,0.24225050514813154,0.3742346598870992,2195.881618975054,2505.472394936468
0.1860859854829704,740.6554200868362,740.2861825578672,0.006608355610440889,0.23129426310300708,0.24220606649117188,0.3742346598870992,2195.806715149935,2511.0911982668
0.18841206030150753,740.7351218615314,740.3808551158734,0.006726793270817595,0.23133885004715232,0.24216147954702663,0.3742346598870992,2195.731561378526,2516.6955219330316
0.19190117252931324,740.852561689279,740.5184169199144,0.006905185200713354,0.23140600732625533,0.24209432226792363,0.3742346598870992,2195.6183640536387,2525.0750400684497
0.19539028475711895,740.9677676297573,740.6512571469688,0.007084455813800155,0.23147349539370926,0.2420268342004697,0.3742346598870992,2195.504609166609,2533.4224481970077
0.19887939698492463,741.0810399252716,740.7799880488838,0.007264601273657856,0.2315413128052585,0.24195901678892046,0.3742346598870992,2195.3902991518094,2541.7380293635115
0.2023685092127303,741.1926412804453,740.9051453127674,0.007445618218230986,0.23160945829522642,0.24189087129895254,0.3742346598870992,2195.2754361426087,2550.0220668813777
0.20585762144053601,741.3028015448912,741.027197612792,0.0076275037047513535,0.23167793075578097,0.24182239883839798,0.3742346598870992,2195.160022006319,2558.2748437155687
0.20934673366834172,741.411721813168,741.146554973015,0.007810255161226875,0.2317467292186721,0.24175360037550686,0.3742346598870992,2195.0440583749805,2566.496641958059
0.2128358458961474,741.5195780144179,741.2635760890348,0.00799387034371716,0.23181585283914782,0.24168447675503113,0.3742346598870992,2194.927546672468,2574.6877423835313
0.2163249581239531,741.6265240550877,741.3785747379072,0.008178347298708128,0.2318853008817899,0.24161502871238905,0.3742346598870992,2194.810488138371,2582.848424074604
0.21981407035175882,741.7326945702639,741.4918253896642,0.008363684329978865,0.2319550727080404,0.24154525688613857,0.3742346598870992,2194.6928838490144,2590.9789641072803
0.2233031825795645,741.8382073322584,741.6035681196882,0.008549879969425706,0.23202516776521814,0.2414751618289608,0.3742346598870992,2194.574734735972,2599.0796372885275
0.2256292573981016,741.9082351792831,741.6773303570119,0.008674486767594287,0.232072077137899,0.24142825245627994,0.3742346598870992,2194.4956663822427,2604.46362796787
0.22795533221663877,741.978044009796,741.7505718466994,0.008799474273412222,0.2321191298314682,0.24138119976271072,0.3742346598870992,2194.416356453194,2609.834545613253
0.23028140703517588,742.0476587628334,741.8233434137325,0.008924842189901678,0.23216632573412574,0.24133400386005321,0.3742346598870992,2194.336805137271,2615.1924697139248
0.23260748185371302,742.117102247433,741.8956915383434,0.0090505902504217,0.2322136647454921,0.24128666484868685,0.3742346598870992,2194.257012603668,2620.5374791954505
0.23493355667225013,742.1863953243641,741.9676587266488,0.00917671821641122,0.23226114677575885,0.2412391828184201,0.3742346598870992,2194.1769790037633,2625.8696524051147
0.23725963149078724,742.2555570724066,742.039283849766,0.009303225875315587,0.23230877174490783,0.24119155784927113,0.3742346598870992,2194.096704472432,2631.189067099511
0.23958570630932438,742.3246049404839,742.110602454086,0.009430113038681635,0.23235653958199406,0.2411437900121849,0.3742346598870992,2194.016189129255,2636.495800434106
0.24191178112786152,742.3935548868538,742.181647045147,0.00955737954040752,0.23240445022448705,0.2410958793696919,0.3742346598870992,2193.935433079631,2641.7899289546
0.24423785594639866,742.462421506453,742.25244734735,0.009685025235134773,0.23245250361766523,0.24104782597651372,0.3742346598870992,2193.854436415797,2647.071528589893
0.24772696817420436,742.5655940818917,742.3582485740206,0.009877204493218949,0.23252485126299038,0.24097547833118854,0.3742346598870992,2193.7324904402885,2654.970600944975
0.25121608040201004,742.6686492808014,742.4636428948638,0.010070236304714543,0.23259751985987112,0.24090280973430783,0.3742346598870992,2193.610003483103,2662.8419041138873
0.2547051926298157,742.7716223891069,742.5687021256931,0.010264120399781463,0.23267050930672364,0.2408298202874553,0.3742346598870992,2193.4869757154643,2670.6856864168926
0.25819430485762146,742.8745442712051,742.6734890613592,0.0104588565818799,0.23274381952955872,0.24075651006462023,0.3742346598870992,2193.3634072620866,2678.5021929718805
0.26168341708542714,742.9774419253997,742.7780586085852,0.010654444720558038,0.2328174504792666,0.24068287911491235,0.37423465988709925,2193.2392982057463,2686.2916656942994
0.2651725293132328,743.0803389698139,742.8824587770159,0.010850884745096141,0.23289140212922418,0.24060892746495477,0.37423465988709925,2193.1146485913187,2694.054343305439
0.26866164154103855,743.1832560674535,742.9867315461745,0.011048176638903994,0.23296567447318592,0.24053465512099304,0.37423465988709925,2192.989458429331,2701.79046134775
0.27215075376884423,743.2862112980182,743.0909136238164,0.011246320434581136,0.23304026752342422,0.24046006207075474,0.37423465988709925,2192.8637276990967,2709.500252206098
0.2756398659966499,743.3892204831106,743.1950371092422,0.011445316209560196,0.2331151813090893,0.24038514828508967,0.37423465988709925,2192.7374563514823,2717.1839451339806
0.27912897822445565,743.4922974706664,743.2991300734446,0.011645164082263102,0.23319041587476216,0.2403099137194168,0.37423465988709925,2192.6106443113435,2724.8417662838647
0.28261809045226133,743.5954543837006,743.4032170664824,0.011845864208708484,0.23326597127917748,0.24023435831500148,0.37423465988709925,2192.48329147968,2732.473938740929
0.286107202680067,743.6987018378364,743.5073195611823,0.012047416779515987,0.23334184759409574,0.24015848200008322,0.37423465988709925,2192.355397735535,2740.0806825595882
0.28959631490787274,743.8020491315166,743.6114563411332,0.012249822017259687,0.23341804490330703,0.24008228469087192,0.37423465988709925,2192.2269629376765,2747.6622148022548
0.2930854271356784,743.9055044123212,743.7156438399451,0.0124530801741286,0.2334945633017502,0.24000576629242876,0.37423465988709925,2192.0979869260796,2755.2187495798835
0.2965745393634841,744.0090748223811,743.8198964378735,0.012657191529857382,0.23357140289473394,0.23992892669944502,0.37423465988709925,2191.96846952324,2762.750498093898
0.3000636515912898,744.1127666255071,743.9242267211522,0.01286215638989464,0.23364856379724713,0.2398517657969318,0.37423465988709925,2191.838410535338,2770.2576686791567
0.30355276381909546,744.2165853183251,744.028645708705,0.01306797508378035,0.23372604613334821,0.23977428346083074,0.37423465988709925,2191.7078097532662,2777.74046684767
0.3070418760469012,744.3205357274246,744.1331630503282,0.013274647963707214,0.2338038500356233,0.23969647955855566,0.37423465988709925,2191.5766669535437,2785.199095332815
0.3105309882747069,744.4246220942734,744.2377871999224,0.01348217540324386,0.2338819756447057,0.23961835394947326,0.37423465988709925,2191.4449818991243,2792.633754133837
0.31402010050251256,744.5288481494347,744.3425255669025,0.0136905577962005,0.23396042310884896,0.23953990648533,0.37423465988709925,2191.3127543401197,2800.044640560456
0.31750921273031824,744.6332171774301,744.4473846485296,0.013899795555619914,0.23403919258354677,0.23946113701063218,0.37423465988709925,2191.1799840144354,2807.4319492774257
0.3209983249581239,744.7377320734231,744.5523701455563,0.014109889112878781,0.23411828423119488,0.23938204536298407,0.37423465988709925,2191.046670648345,2814.795872348913
0.32448743718592965,744.842395392751,744.6574870632874,0.014320838916886167,0.23419769822078917,0.23930263137338978,0.37423465988709925,2190.9128139569966,2822.136599282592
0.3279765494137354,744.9472093942051,744.7627397998848,0.014532645433367528,0.2342774347276563,0.23922289486652265,0.3742346598870993,2190.7784136448668,2829.454317073362
0.33146566164154107,745.0521760778449,744.8681322235252,0.01474530914422409,0.23435749393321242,0.23914283566096653,0.3742346598870993,2190.6434694061695,2836.7492102466063
0.33495477386934674,745.1572972180353,744.9736677398101,0.014958830546958617,0.234437876024747,0.23906245356943195,0.3742346598870993,2190.507980925217,2844.021460900943
0.3384438860971525,745.2625743923064,745.0793493506579,0.015173210154159657,0.23451858119522867,0.23898174839895028,0.3742346598870993,2190.3719478767507,2851.2712487504064
0.34193299832495816,745.3680090065646,745.1851797057489,0.015388448493037396,0.2345996096431306,0.23890071995104836,0.3742346598870993,2190.2353699262326,2858.4987511660165
0.34542211055276384,745.473602317113,745.2911611474634,0.015604546105005042,0.23468096157227272,0.23881936802190623,0.3742346598870993,2190.098246730113,2865.7041432167184
0.3489112227805695,745.5793554498841,745.3972957501328,0.015821503545300306,0.23476263719167936,0.2387376924024996,0.3742346598870993,2189.9605779360695,2872.8875977096486
0.3524003350083752,745.685269417237,745.5035853543193,0.016039321382642392,0.2348446367154501,0.23865569287872884,0.3742346598870993,2189.8223631832257,2880.049285229723
0.35588944723618093,745.7913451326251,745.6100315967547,0.016258000198920285,0.2349269603626424,0.23857336923153655,0.3742346598870993,2189.683602102348,2887.1893741785234
0.3593785594639866,745.8975834234046,745.7166359364837,0.01647754058890872,0.23500960835716467,0.23849072123701429,0.3742346598870993,2189.5442943160265,2894.3080308124836
0.3628676716917923,746.0039850420187,745.8233996776931,0.016697943160008704,0.23509258092767854,0.2384077486665004,0.3742346598870993,2189.404439438839,2901.405419280358
0.366356783919598,746.110550675761,745.9303239896432,0.016919208532009674,0.23517587830750947,0.2383244512866695,0.3742346598870993,2189.264037077503,2908.481701659982
0.36984589614740365,746.2172809553005,746.0374099240711,0.017141337336870916,0.23525950073456434,0.23824082885961462,0.3742346598870993,2189.123086831012,2915.537037994319
0.3733350083752094,746.324176462122,746.1446584303828,0.017364330218520033,0.2353434484512556,0.23815688114292335,0.3742346598870993,2188.9815882907683,2922.5715863267965
0.37682412060301507,746.4312377350219,746.2520703689158,0.017588187832666566,0.2354277217044311,0.23807260788974785,0.3742346598870993,2188.8395410406947,2929.585502735942
0.38031323283082075,746.5384652757771,746.3596465225154,0.017812910846629098,0.23551232074530906,0.2379880088488699,0.3742346598870993,2188.696944657349,2936.5789413693196
0.3838023450586265,746.6458595540927,746.4673876066385,0.018038499939174352,0.23559724582941746,0.2379030837647615,0.3742346598870993,2188.553798710025,2943.55205447678
0.3872914572864322,746.7534210119192,746.5752942781724,0.018264955800366956,0.23568249721653745,0.2378178323776415,0.37423465988709936,2188.410102760847,2950.5049924430305
0.3907805695142379,746.8611500672204,746.6833671431306,0.018492279131428823,0.23576807517065046,0.2377322544235285,0.37423465988709936,2188.2658563648597,2957.4379038195343
0.3942696817420436,746.9690471172604,746.7916067633681,0.018720470644607037,0.2358539799598884,0.23764634963429054,0.37423465988709936,2188.121059070112,2964.350935355758
0.39775879396984926,747.0771125414715,746.9000136624413,0.01894953106304942,0.23594021185648698,0.23756011773769198,0.37423465988709936,2187.975710417735,2971.244232029762
0.40124790619765494,747.1853467039558,747.0085883307204,0.019179461120686973,0.23602677113674117,0.23747355845743778,0.37423465988709936,2187.829809942019,2978.1179370781683
0.4047370184254606,747.2937499556677,747.1173312298498,0.01941026156212253,0.23611365808096363,0.23738667151321532,0.37423465988709936,2187.6833571704806,2984.9721920254965
0.4082261306532663,747.4023226363173,747.2262427966389,0.019641933142524975,0.23620087297344453,0.2372994566207344,0.37423465988709936,2187.536351623933,2991.8071367128937
0.41171524288107203,747.51106507603,747.3353234464565,0.019874476627528538,0.23628841610241397,0.237211913491765,0.37423465988709936,2187.388792816549,2998.6229093262673
0.41520435510887777,747.6199775967946,747.444573576191,0.02010789279313665,0.23637628776000555,0.2371240418341734,0.37423465988709936,2187.240680255921,3005.41964642383
0.41869346733668344,747.7290605137246,747.5539935668322,0.02034218242562997,0.2364644882422218,0.23703584135195715,0.37423465988709936,2187.0920134431194,3012.1974829630767
0.4221825795644891,747.8383141361596,747.6635837857231,0.02057734632147823,0.23655301784890112,0.23694731174527783,0.37423465988709936,2186.942791872751,3018.9565523271995
0.42567169179229486,747.9477387686239,747.7733445885232,0.02081338528725551,0.23664187688368565,0.2368584527104933,0.37423465988709936,2186.79301503301,3025.696986350952
0.42916080402010054,748.0573347116627,747.8832763209202,0.021050300139558713,0.23673106565399088,0.23676926394018807,0.37423465988709936,2186.64268240573,3032.4189153459874
0.4326499162479062,748.1671022625709,747.9933793201235,0.021288091704928958,0.2368205844709757,0.23667974512320325,0.37423465988709936,2186.4917934664354,3039.1224681256635
0.4361390284757119,748.2770417160284,748.1036539161643,0.021526760819775684,0.2369104336495142,0.23658989594466476,0.3742346598870994,2186.3403476843887,3045.807772029346
0.4396281407035176,748.3871533646532,748.2141004330304,0.021766308330303224,0.23700061350816773,0.23649971608601122,0.3742346598870994,2186.188344522637,3052.4749529462065
0.4431172529313233,748.4974374994833,748.324719189655,0.022006735092439715,0.2370911243691583,0.23640920522502065,0.3742346598870994,2186.0357834380575,3059.1241353385385
0.446606365159129,748.6078944103972,748.4355105007782,0.022248041971768145,0.23718196655834256,0.2363183630358364,0.3742346598870994,2185.8826638814,3065.755442264593
0.4500954773869347,748.718524386479,748.5464746776977,0.022490229843459435,0.23727314040518663,0.2362271891889923,0.3742346598870994,2185.7289852973317,3072.3689954009533
0.45358458961474035,748.8293277163373,748.6576120289236,0.02273329959220738,0.23736464624274164,0.2361356833514373,0.3742346598870994,2185.5747471244763,3078.9649150644545
0.45707370184254603,748.9403046883828,748.7689228607485,0.022977252112165378,0.23745648440761982,0.23604384518655913,0.3742346598870994,2185.4199487954547,3085.54332023366
0.46056281407035177,749.0514555910687,748.8804074777436,0.023222088306884835,0.23754865523997137,0.23595167435420758,0.3742346598870994,2185.2645897369257,3092.1043285699056
0.46405192629815745,749.1627807131024,748.9920661831922,0.023467809089255103,0.2376411590834619,0.23585917051071703,0.3742346598870994,2185.108669369621,3098.648056437923
0.4675410385259631,749.274280343627,749.1038992794661,0.023714415381444975,0.2377339962852503,0.23576633330892866,0.3742346598870994,2184.9521871083853,3105.17461892605
0.47103015075376886,749.3859547723812,749.215907068354,0.02396190811484555,0.2378271671959673,0.23567316239821165,0.3742346598870994,2184.795142362211,3111.6841298660365
0.4745192629815746,749.4978042898376,749.3280898513478,0.02421028823001446,0.23792067216969442,0.23557965742448453,0.3742346598870994,2184.6375345342744,3118.176701852463
0.4780083752093803,749.6098291873229,749.4404479298911,0.024459556676621398,0.2380145115639436,0.23548581803023536,0.3742346598870994,2184.479363021969,3124.652446261769
0.48149748743718596,749.7220297571232,749.5529816055958,0.02470971441339488,0.23810868573963692,0.23539164385454203,0.3742346598870995,2184.3206272169405,3131.1114732709125
0.4849865996649917,749.8344062925743,749.6656911804318,0.024960762408070183,0.23820319506108723,0.23529713453309173,0.3742346598870995,2184.161326505119,3137.5538918756592
0.48847571189279737,749.9469590881413,749.7785769568903,0.025212701637338384,0.23829803989597886,0.2352022896982001,0.3742346598870995,2184.001460266753,3143.979809908519
0.49196482412060305,750.0596884394876,749.8916392381275,0.025465533086796582,0.23839322061534887,0.23510710897883008,0.3742346598870995,2183.841027876438,3150.3893340563304
0.49545393634840873,750.1725946435342,750.0048783280888,0.025719257750899078,0.23848873759356873,0.23501159200061023,0.3742346598870995,2183.680028703151,3156.7825698775064
0.4989430485762144,750.2856779985121,750.1182945316175,0.025973876632909627,0.23858459120832623,0.23491573838585272,0.3742346598870995,2183.5184621102776,3163.1596218189466
0.5024321608040201,750.3989388040072,750.2318881545489,0.026229390744854666,0.2386807818406081,0.23481954775357086,0.3742346598870995,2183.3563274556436,3169.5205932326244
0.5059212730318259,750.5123773609993,750.3456595037924,0.026485801107477492,0.23877730987468243,0.23472301971949652,0.3742346598870995,2183.193624091544,3175.86558639186
0.5094103852596316,750.6259939718967,750.4596088874031,0.02674310875019332,0.23887417569808206,0.2346261538960969,0.3742346598870995,2183.03035136477,3182.194702507277
0.5128994974874372,750.7397889405653,750.5737366146443,0.02700131471104534,0.2389713797015879,0.23452894989259104,0.3742346598870995,2182.8665086166397,3188.5080417424642
0.5163886097152429,750.8537625723548,750.6880429960412,0.027260420036661553,0.23906892227921264,0.2344314073149663,0.3742346598870995,2182.7020951830223,3194.805703229335
0.5198777219430486,750.96791517412,750.8025283434284,0.027520425782212476,0.23916680382818492,0.23433352576599403,0.37423465988709953,2182.537110394367,3201.0877850832003
0.5233668341708543,751.0822470542416,750.9171929699907,0.0277813330113697,0.23926502474893366,0.2342353048452453,0.37423465988709953,2182.3715535757283,3207.3543844175606
0.52685594639866,751.1967585226421,751.032037190299,0.028043142796265214,0.23936358544507277,0.23413674414910618,0.37423465988709953,2182.205424046793,3213.605597358618
0.5303450586264656,751.3114498908005,751.1470613203419,0.028305856217451544,0.2394624863233862,0.23403784327079274,0.37423465988709953,2182.0387211219036,3219.8415190595233
0.5338341708542713,751.4263214717654,751.2622656775521,0.028569474363862625,0.2395617277938131,0.23393860180036585,0.37423465988709953,2181.871444110085,3226.062243714354
0.5373232830820771,751.5413735801657,751.377650580831,0.028833998332775463,0.23966131026943346,0.2338390193247455,0.37423465988709953,2181.7035923150684,3232.2678645718397
0.5408123953098828,751.6566065322208,751.4932163505683,0.02909942922977245,0.23976123416645395,0.233739095427725,0.37423465988709953,2181.5351650353136,3238.4584739488328
0.5443015075376885,751.7720206457489,751.6089633086616,0.02936576816870449,0.23986149990419395,0.233638829689985,0.37423465988709953,2181.3661615640353,3244.634163243533
0.5477906197654941,751.8876162401735,751.7248917785306,0.02963301627165473,0.23996210790507194,0.233538221689107,0.37423465988709953,2181.1965811892233,3250.7950229484695
0.5512797319932998,752.0033936365314,751.8410020851322,0.029901174668903033,0.24006305859459218,0.23343727099958678,0.37423465988709953,2181.0264231936667,3256.941142663254
0.5547688442211056,752.1193531574775,751.9572945549722,0.030170244498891087,0.24016435240133144,0.23333597719284752,0.3742346598870996,2180.855686854975,3263.072611107095
0.5582579564489113,752.2354951272896,752.0737695161159,0.030440226908188137,0.24026598975692628,0.23323433983725267,0.3742346598870996,2180.6843714456013,3269.1895161310895
0.561747068676717,752.3518198718734,752.190427298198,0.03071112305145745,0.24036797109606028,0.23313235849811867,0.3742346598870996,2180.5124762328624,3275.2919447303007
0.5652361809045227,752.4683277187665,752.3072682324299,0.0309829340914233,0.24047029685645163,0.23303003273772732,0.3742346598870996,2180.3400004789596,3281.3799830556104
0.5687252931323283,752.5850189971416,752.4242926516088,0.031255661198838616,0.24057296747884105,0.2329273621153379,0.3742346598870996,2180.1669434409996,3287.4537164253675
0.572214405360134,752.7018940378094,752.5415008901224,0.03152930555245323,0.2406759834069797,0.23282434618719924,0.3742346598870996,2179.993304371016,3293.513229336828
0.5757035175879397,752.8189531732229,752.6588932839563,0.03180386833898268,0.24077934508761759,0.23272098450656137,0.3742346598870996,2179.819082515987,3299.5586054773903
0.5791926298157454,752.9361967374781,752.7764701706983,0.03207935075307765,0.24088305297049187,0.23261727662368709,0.3742346598870996,2179.644277117854,3305.5899277356416
0.582681742043551,753.053625066318,752.8942318895437,0.03235575399729389,0.24098710750831573,0.23251322208586322,0.3742346598870996,2179.468887413546,3311.607278212199
0.5861708542713568,753.1712384971341,753.0121787812993,0.03263307928206277,0.24109150915676714,0.23240882043741182,0.3742346598870996,2179.2929126349904,3317.6107382303744
0.5896599664991625,753.289037368969,753.1303111883879,0.032911327825662307,0.24119625837447806,0.2323040712197009,0.37423465988709964,2179.116352009139,3323.6003883466415
0.5931490787269682,753.4070220225182,753.2486294548511,0.03319050085418878,0.24130135562302366,0.2321989739711553,0.37423465988709964,2178.9392047579804,3329.576308360932
0.5966381909547739,753.5251928001317,753.3671339263535,0.03347059960152886,0.24140680136691192,0.23209352822726703,0.37423465988709964,2178.7614700985614,3335.5385773267512
0.6001273031825796,753.6435500458166,753.4858249501855,0.03375162530933218,0.24151259607357323,0.23198773352060573,0.37423465988709964,2178.5831472430013,3341.487273561115
0.6036164154103852,753.7620941052384,753.604702875266,0.034033579226984516,0.24161874021335036,0.2318815893808286,0.37423465988709964,2178.4042353985114,3347.4224746543273
0.6071055276381909,753.8808253257231,753.7237680521457,0.034316462611581396,0.24172523425948841,0.23177509533469054,0.37423465988709964,2178.224733767411,3353.344257479578
0.6105946398659966,753.9997440562588,753.8430208330099,0.034600276727902154,0.2418320786881252,0.23166825090605372,0.37423465988709964,2178.0446415471433,3359.2526982023905
0.6140837520938023,754.1188506474977,753.9624615716801,0.03488502284838459,0.24193927397828163,0.23156105561589732,0.37423465988709964,2177.863957930292,3365.147872289902
0.6175728643216081,754.2381454517575,754.0820906236182,0.03517070225309995,0.24204682061185223,0.23145350898232672,0.3742346598870997,2177.682682104597,3371.029854519989
0.6210619765494138,754.3576288230238,754.201908345927,0.03545731622972841,0.24215471907359604,0.23134561052058292,0.3742346598870997,2177.50081325297,3376.8987189902405
0.6245510887772194,754.4773011169511,754.321915097354,0.035744866073535116,0.2422629698511275,0.23123735974305146,0.3742346598870997,2177.3183505535103,3382.754539126782
0.6280402010050251,754.5971626908657,754.4421112382937,0.036033353087346454,0.24237157343490756,0.2311287561592714,0.3742346598870997,2177.1352931795177,3388.597387692952
0.6315293132328308,754.7172139037667,754.562497130789,0.03632277858152696,0.242480530318235,0.23101979927594396,0.3742346598870997,2176.9516402995105,3394.427336797831
0.6350184254606365,754.8374551163282,754.6830731385347,0.03661314387395652,0.24258984099723777,0.2309104885969412,0.3742346598870997,2176.7673910772373,3400.2444579046364
0.6385075376884422,754.9578866909018,754.8038396268792,0.03690445029000802,0.24269950597086465,0.2308008236233143,0.3742346598870997,2176.5825446716917,3406.0488218389746
0.6419966499162478,755.0785089915175,754.9247969628267,0.03719669916252545,0.24280952574087702,0.23069080385330193,0.3742346598870997,2176.3971002371277,3411.840498796957
0.6454857621440535,755.199322383887,755.0459455150403,0.037489891831802354,0.24291990081184064,0.2305804287823383,0.3742346598870997,2176.2110569230713,3417.6195583531876
0.6489748743718593,755.3203272354051,755.167285653844,0.037784029645560664,0.24303063169111785,0.23046969790306107,0.37423465988709975,2176.0244138743356,3423.386069468617
0.6524639865996651,755.4415239151522,755.2888177512251,0.038079113958929996,0.24314171888885963,0.23035861070531932,0.37423465988709975,2175.837170231032,3429.1401004982686
0.6559530988274708,755.5629127938962,755.4105421808364,0.03837514613442723,0.24325316291799792,0.23024716667618103,0.37423465988709975,2175.649325128586,3434.881719198844
0.6594422110552765,755.6844942440954,755.5324593179994,0.038672127541936566,0.24336496429423823,0.23013536529994072,0.37423465988709975,2175.4608776977466,3440.6109927362013
0.6629313232830821,755.8062686399006,755.6545695397064,0.038970059558689846,0.2434771235360521,0.23002320605812684,0.37423465988709975,2175.2718270646014,3446.327987692717
0.6664204355108878,755.9282363571574,755.776873224623,0.0392689435692473,0.24358964116466997,0.22991068842950899,0.37423465988709975,2175.0821723505883,3452.032770074527
0.6699095477386935,756.050397773409,755.8993707530911,0.03956878096547861,0.24370251770407392,0.22979781189010504,0.37423465988709975,2174.8919126725054,3457.7254053186543
0.6733986599664992,756.172753267899,756.0220625071313,0.039869573146544345,0.2438157536809908,0.22968457591318817,0.3742346598870998,2174.7010471425256,3463.4059583000244
0.6768877721943048,756.2953032215735,756.1449488704457,0.04017132151887773,0.2439293496248853,0.22957097996929365,0.3742346598870998,2174.509574868207,3469.074493338367
0.6803768844221105,756.4180480170844,756.2680302284209,0.04047402749616672,0.24404330606795324,0.2294570235262257,0.3742346598870998,2174.3174949525037,3474.7310742050113
0.6838659966499163,756.5409880387925,756.3913069681305,0.040777692499336486,0.24415762354511494,0.229342706049064,0.3742346598870998,2174.124806493778,3480.375764129573
0.687355108877722,756.6641236727698,756.5147794783385,0.041082317956532055,0.24427230259400867,0.22922802700017028,0.3742346598870998,2173.9315085858107,3486.0086258065367
0.6908442211055277,756.7874553068028,756.6384481495016,0.041387905303101484,0.24438734375498442,0.22911298583919454,0.3742346598870998,2173.737600317812,3491.629721401739
0.6943333333333334,756.9109833303962,756.762313373773,0.0416944559815792,0.2445027475710975,0.22899758202308146,0.3742346598870998,2173.5430807744315,3497.239112558746
0.697822445561139,757.0347081347754,756.8863755450052,0.04200197144166963,0.2446185145881024,0.22888181500607654,0.37423465988709986,2173.3479490357704,3502.8368604051343
0.7013115577889448,757.1586301128903,757.0106350587528,0.04231045314023127,0.24473464535444694,0.228765684239732,0.37423465988709986,2173.1522041773887,3508.423025558676
0.7048006700167505,757.2827496594184,757.1350923122764,0.04261990254126085,0.2448511404212661,0.22864918917291285,0.37423465988709986,2172.955845270318,3513.9976681334265
0.7082897822445562,757.4070671707692,757.2597477045454,0.04293032111587799,0.24496800034237634,0.2285323292518026,0.37423465988709986,2172.7588713810705,3519.5608477457217
0.7117788944723619,757.5315830450871,757.3846016362418,0.043241710342309995,0.2450852256742699,0.22841510391990905,0.37423465988709986,2172.5612815716468,3525.1126235200804
0.7152680067001675,757.6562976822554,757.5096545097634,0.04355407170587699,0.24520281697610918,0.22829751261806977,0.37423465988709986,2172.363074899548,3530.6530540950203
0.7187571189279733,757.7812114839004,757.6349067292276,0.04386740669897732,0.24532077480972125,0.2281795547844577,0.37423465988709986,2172.164250417783,3536.1821976287824
0.7222462311557789,757.9063248533956,757.7603587004747,0.04418171682107316,0.24543909973959238,0.22806122985458657,0.3742346598870999,2171.9648071748798,3541.700111804972
0.7257353433835846,758.0316381958658,757.8860108310722,0.04449700357867656,0.24555779233286287,0.22794253726131608,0.3742346598870999,2171.7647442148905,3547.2068538381127
0.7292244556113903,758.1571519181911,758.0118635303179,0.044813268485335504,0.24567685315932175,0.2278234764348572,0.3742346598870999,2171.564060577405,3552.7024804791176
0.7327135678391961,758.2828664290123,758.1379172092443,0.04513051306162043,0.2457962827914017,0.22770404680277725,0.3742346598870999,2171.3627552975563,3558.18704802068
0.7362026800670018,758.4087821387351,758.2641722806226,0.045448738835110865,0.24591608180417404,0.22758424779000488,0.3742346598870999,2171.160827406029,3563.6606123025795
0.7396917922948075,758.5348994595346,758.3906291589666,0.04576794734038239,0.24603625077534388,0.22746407881883507,0.3742346598870999,2170.9582759290697,3569.123228716916
0.7431809045226132,758.6612188053612,758.5172882605373,0.046088140118993814,0.24615679028524515,0.2273435393089338,0.3742346598871,2170.7550998884935,3574.5749522132605
0.7466700167504188,758.7877405919454,758.6441500033465,0.046409318719474554,0.24627770091683596,0.227222628677343,0.3742346598871,2170.551298301691,3580.0158373037316
0.7501591289782245,758.9144652368032,758.7712148071621,0.04673148469731234,0.24639898325569393,0.22710134633848503,0.3742346598871,2170.3468701816396,3585.445938067999
0.7536482412060301,759.041393159242,758.8984830935124,0.04705463961494097,0.24652063789001163,0.22697969170416732,0.3742346598871,2170.141814536908,3590.8653081582115
0.7571373534338358,759.1685247803666,759.0259552856903,0.047378785041728516,0.24664266541059204,0.2268576641835869,0.3742346598871,2169.936130371664,3596.2740008038536
0.7606264656616415,759.2958605230854,759.153631808759,0.04770392255396555,0.24676506641084425,0.2267352631833347,0.3742346598871,2169.729816685685,3601.672068816532
0.7641155778894473,759.4234008121163,759.2815130895563,0.04803005373485372,0.246887841486779,0.22661248810739995,0.37423465988710003,2169.522872474361,3607.059564594693
0.767604690117253,759.5511460739942,759.4095995566998,0.04835718017449445,0.24701099123700462,0.22648933835717433,0.37423465988710003,2169.315296728704,3612.436540128268
0.7710938023450586,759.6790967370779,759.5378916405929,0.048685303469877914,0.24713451626272268,0.22636581333145628,0.37423465988710003,2169.1070884353567,3617.8030470032604
0.7745829145728643,759.8072532315571,759.6663897734292,0.04901442522487214,0.247258417167724,0.22624191242645494,0.37423465988710003,2168.898246576595,3623.159136406256
0.77807202680067,759.9356159894605,759.7950943891988,0.04934454705021242,0.2473826945583847,0.22611763503579424,0.37423465988710003,2168.688770130338,3628.5048591288764
0.7815611390284758,760.0641854446638,759.9240059236943,0.04967567056349079,0.24750734904366214,0.2259929805505168,0.37423465988710003,2168.4786580701552,3633.8402655721666
0.7850502512562814,760.1929620328983,760.0531248145161,0.05000779738914575,0.2476323812350911,0.22586794835908786,0.3742346598871001,2168.2679093652705,3639.165405750919
0.788539363484087,760.3219461917598,760.1824515010794,0.0503409291584523,0.24775779174678,0.22574253784739895,0.3742346598871001,2168.0565229805693,3644.4803292979386
0.7920284757118927,760.4511383607182,760.3119864246203,0.05067506750951194,0.2478835811954072,0.22561674839877174,0.3742346598871001,2167.844497876607,3649.785085468246
0.7955175879396985,760.5805389811272,760.4417300282025,0.05101021408724299,0.24800975020021732,0.22549057939396164,0.3742346598871001,2167.631833009612,3655.0797231432202
0.7990067001675043,760.7101484962351,760.5716827567247,0.05134637054337107,0.2481362993830176,0.22536403021116136,0.3742346598871001,2167.4185273314934,3660.364290834688
0.80249581239531,760.8399673511955,760.7018450569271,0.05168353853641974,0.24826322936817447,0.2252371002260045,0.3742346598871001,2167.2045797898472,3665.6388366889487
0.8059849246231157,760.9699959930796,760.8322173773997,0.052021719731701346,0.24839054078261,0.22510978881156896,0.37423465988710014,2166.989989327961,3670.9034084907516
0.8094740368509212,761.1002348708882,760.96280016859,0.052360915801307965,0.24851823425579864,0.22498209533838032,0.37423465988710014,2166.7747548848215,3676.158053667211
0.812963149078727,761.2306844355651,761.093593882811,0.052701128424102635,0.2486463104197638,0.22485401917441517,0.37423465988710014,2166.5588753951174,3681.402819291669
0.8164522613065327,761.3613451400107,761.22459897425,0.05304235928571058,0.24877476990907452,0.22472555968510444,0.37423465988710014,2166.3423497892472,3686.6377520875076
0.8199413735343384,761.4922174390974,761.3558158989777,0.05338461007851076,0.24890361336084244,0.22459671623333652,0.37423465988710014,2166.125176993324,3691.8628984319043
0.8234304857621441,761.6233017896853,761.4872451149573,0.05372788250162751,0.24903284141471846,0.2244674881794605,0.3742346598871002,2165.9073559291814,3697.07830435954
0.8269195979899497,761.7545986506385,761.618887082055,0.05407217826092233,0.24916245471288984,0.22433787488128912,0.3742346598871002,2165.6888855143766,3702.2840155662543
0.8304087102177555,761.8861084828436,761.7507422620497,0.05441749906898583,0.24929245390007698,0.22420787569410197,0.3742346598871002,2165.469764662197,3707.4800774126484
0.8338978224455612,762.0178317492287,761.8828111186442,0.054763846645129836,0.24942283962353065,0.2240774899706483,0.3742346598871002,2165.249992281666,3712.6665349276454
0.8373869346733669,762.1497689147837,762.0150941174771,0.05511122271537967,0.24955361253302888,0.22394671706115007,0.3742346598871002,2165.0295672775464,3717.843432811997
0.8408760469011726,762.2819204465825,762.1475917261344,0.05545962901246652,0.24968477328087427,0.2238155563133047,0.37423465988710025,2164.8084885503467,3723.010815441746
0.8443651591289782,762.4142868138059,762.2803044141624,0.05580906727582002,0.24981632252189104,0.22368400707228792,0.37423465988710025,2164.586754996323,3728.16872687164
0.847854271356784,762.546868487767,762.4132326530816,0.056159539251560954,0.24994826091342234,0.22355206868075658,0.37423465988710025,2164.364365507488,3733.317210838501
0.8513433835845897,762.6796659419382,762.546376916401,0.056511046692494,0.25008058911532766,0.22341974047885127,0.37423465988710025,2164.1413189716113,3738.456310764549
0.8548324958123954,762.8126796519796,762.6797376796322,0.05686359135810083,0.25021330778997997,0.22328702180419896,0.37423465988710025,2163.9176142722267,3743.5860697606836
0.8583216080402011,762.9459100957703,762.8133154203073,0.05721717501453316,0.25034641760226334,0.22315391199191562,0.3742346598871003,2163.693250288635,3748.7065306297186
0.8618107202680068,763.079357753442,762.9471106179947,0.05757179943460601,0.2504799192195702,0.22302041037460876,0.3742346598871003,2163.4682258959097,3753.817735869578
0.8652998324958124,763.2130231074142,763.0811237543176,0.05792746639779111,0.250613813311799,0.22288651628237993,0.3742346598871003,2163.2425399648987,3758.9197276764457
0.8687889447236181,763.3469066424332,763.2153553129735,0.05828417769021041,0.2507481005513518,0.22275222904282713,0.3742346598871003,2163.016191362232,3764.012547947878
0.8722780569514238,763.4810088456139,763.349805779755,0.05864193510462977,0.25088278161313177,0.2226175479810472,0.37423465988710036,2162.7891789503224,3769.0962382858716
0.8757671691792295,763.6153302064843,763.484475642571,0.059000740440452754,0.2510178571745408,0.22248247241963814,0.37423465988710036,2162.561501587371,3774.170839999897
0.8792562814070352,763.7498712170341,763.6193653914713,0.05936059550371454,0.25115332791547745,0.22234700167870147,0.37423465988710036,2162.3331581273715,3779.2363941098856
0.8827453936348408,763.8846323717669,763.7544755186708,0.05972150210707605,0.25128919451833465,0.22221113507584433,0.37423465988710036,2162.104147420113,3784.2929413491856
0.8862345058626465,764.0196141677571,763.8898065185772,0.06008346206981811,0.25142545766799723,0.22207487192618175,0.37423465988710036,2161.874468311183,3789.340522167474
0.8897236180904522,764.1548171047107,764.0253588878188,0.060446477217835824,0.2515621180518402,0.22193821154233875,0.3742346598871004,2161.6441196419737,3794.3791767336356
0.893212730318258,764.2902416850316,764.1611331252766,0.060810549383633075,0.2516991763597265,0.22180115323445246,0.3742346598871004,2161.4131002496824,3799.408944938604
0.8967018425460637,764.425888413893,764.2971297321163,0.06117568040631708,0.25183663328400485,0.22166369631017407,0.3742346598871004,2161.181408967317,3804.4298663981635
0.9001909547738693,764.5617577993155,764.4333492118247,0.06154187213159329,0.2519744895195081,0.22152584007467083,0.3742346598871004,2160.9490446236982,3809.441980455723
0.903680067001675,764.6978503522508,764.5697920702477,0.06190912641176017,0.25211274576355097,0.221387583830628,0.3742346598871005,2160.7160060434635,3814.4453261850476
0.9071691792294807,764.8341665866733,764.7064588156311,0.06227744510570437,0.25225140271592833,0.22124892687825062,0.3742346598871005,2160.4822920470688,3819.4399423929613
0.9106582914572865,764.9707070196786,764.8433499586657,0.06264683007889588,0.25239046107891355,0.22110986851526537,0.3742346598871005,2160.2479014507944,3824.425867622013
0.9141474036850922,765.1074721715913,764.9804660125346,0.06301728320338339,0.25252992155725656,0.22097040803692242,0.3742346598871005,2160.0128330667444,3829.4031401531106
0.9176365159128979,765.244462566082,765.1178074929646,0.06338880635778989,0.25266978485818214,0.2208305447359968,0.37423465988710053,2159.7770857028527,3834.3717980081265
0.9211256281407035,765.3816787302935,765.2553749182824,0.06376140142730828,0.2528100516913885,0.22069027790279044,0.37423465988710053,2159.540658162883,3839.331878952464
0.9246147403685092,765.5191211949792,765.3931688094739,0.06413507030369732,0.2529507227690456,0.22054960682513336,0.37423465988710053,2159.3035492464337,3844.2834204976
0.9281038525963149,765.6567904946528,765.5311896902496,0.06450981488527761,0.25309179880579363,0.22040853078838532,0.37423465988710053,2159.065757748939,3849.226459903592
0.9315929648241206,765.7946871677515,765.6694380871148,0.06488563707692785,0.25323328051874167,0.22026704907543726,0.3742346598871006,2158.8272824616715,3854.1610341815594
0.9350820770519263,765.9328117568136,765.8079145294453,0.06526253879008126,0.2533751686274663,0.22012516096671264,0.3742346598871006,2158.5881221717455,3859.087180096132
0.9385711892797319,766.0711648086723,765.9466195495694,0.06564052194272223,0.25351746385401036,0.2199828657401686,0.3742346598871006,2158.3482756621165,3864.004934167873
0.9420603015075377,766.209746874665,766.0855536828576,0.06601958845938313,0.2536601669228817,0.2198401626712973,0.3742346598871006,2158.1077417115876,3868.914332675672
0.9455494137353435,766.3485585108647,766.2247174678186,0.06639974027114141,0.25380327856105206,0.21969705103312687,0.37423465988710064,2157.8665190948063,3873.8154116591104
0.9490385259631492,766.4876002783283,766.3641114462035,0.0667809793156169,0.2539467994979564,0.21955353009622258,0.37423465988710064,2157.62460658227,3878.708206920801
0.9525276381909549,766.6268727433704,766.5037361631205,0.06716330753696939,0.25409073046549135,0.2194095991286876,0.37423465988710064,2157.382002940327,3883.5927540287025
0.9560167504187606,766.766376477861,766.6435921671568,0.06754672688589648,0.254235072198015,0.21926525739616398,0.37423465988710064,2157.138706931175,3888.4690883184066
0.9595058626465662,766.9061120595491,766.7836800105136,0.06793123931963169,0.25437982543234583,0.21912050416183312,0.3742346598871007,2156.894717312866,3893.337244895401
0.9629949748743719,767.0460800724179,766.9240002491505,0.06831684680194293,0.2545249909077623,0.21897533868641664,0.3742346598871007,2156.6500328393045,3898.1972586373076
0.9664840871021776,767.1862811070713,767.0645534429435,0.06870355130313127,0.2546705693660024,0.21882976022817657,0.3742346598871007,2156.4046522602503,3903.0491641960994
0.9699731993299833,767.326715761156,767.2053401558576,0.06909135480003008,0.2548165615512631,0.21868376804291587,0.3742346598871007,2156.158574321318,3907.892996000292
0.973462311557789,767.4673846398238,767.3463609561327,0.06948025927600454,0.2549629682102004,0.2185373613839785,0.37423465988710075,2155.9117977639776,3912.7287882571145
0.9769514237855947,767.6082883562343,767.4876164164873,0.06987026672095165,0.25510979009192947,0.21839053950224951,0.37423465988710075,2155.664321325554,3917.5565749546586
0.9804405360134004,767.749427532108,767.6291071143401,0.0702613791313005,0.25525702794802413,0.2182433016461548,0.37423465988710075,2155.416143739227,3922.376389864008
0.9839296482412061,767.8908027983268,767.7708336320501,0.07065359851001328,0.255404682532518,0.2180956470616609,0.3742346598871008,2155.167263734032,3927.1882665413477
0.9874187604690118,768.0324147955946,767.9127965571803,0.07104692686658663,0.2555527546019046,0.21794757499227435,0.3742346598871008,2154.9176800348564,3931.992238330054
0.9909078726968175,768.1742641751567,768.054996482783,0.07144136621705365,0.25570124491513796,0.21779908467904102,0.3742346598871008,2154.667391362442,3936.788338362767
0.9943969849246233,768.3163515995891,768.1974340077121,0.07183691858398647,0.25585015423363394,0.217650175360545,0.37423465988710086,2154.4163964333784,3941.5765995634456
0.9978860971524289,768.4586777436614,768.3401097369629,0.07223358599649954,0.2559994833212713,0.21750084627290764,0.37423465988710086,2154.164693960107,3946.3570546494075
1.0013752093802346,768.6012432952812,768.4830242820434,0.0726313704902537,0.25614923294439335,0.21735109664978564,0.37423465988710086,2153.912282650913,3951.129736133353
1.0048643216080402,768.7440489565289,768.6261782613793,0.07303027410746098,0.2562994038718094,0.21720092572236957,0.37423465988710086,2153.6591612099255,3955.8946763253775
1.008353433835846,768.8870954447899,768.7695723007557,0.0734302988968903,0.2564499968747974,0.21705033271938157,0.3742346598871009,2153.405328337113,3960.651907334967
1.0118425460636515,769.0303834939957,768.9132070337995,0.07383144691387411,0.25660101272710606,0.21689931686707287,0.3742346598871009,2153.150782728279,3965.4014610729832
1.0153316582914573,769.1739138559836,769.0570831025071,0.07423372022031616,0.25675245220495807,0.2167478773892209,0.3742346598871009,2152.895523075057,3970.1433692536443
1.0188207705192631,769.3176873019862,769.2012011578198,0.07463712088470024,0.256904316087053,0.21659601350712596,0.374234659887101,2152.6395480649053,3974.877663396489
1.0223098827470687,769.4617046242643,769.3455618602529,0.07504165098210035,0.25705660515457157,0.21644372443960738,0.374234659887101,2152.3828563811007,3979.6043748283355
1.0257989949748745,769.6059666378974,769.4901658805844,0.0754473125941922,0.2572093201911797,0.21629100940299922,0.374234659887101,2152.125446702731,3984.32353468524
1.0292881072026803,769.7504741827468,769.6350139006064,0.075854107809266,0.2573624619830334,0.2161378676111455,0.37423465988710103,2151.8673177046862,3989.035173914444
1.0327772194304858,769.8952281256085,769.7801066139492,0.07626203872224119,0.25751603131878437,0.2159842982753946,0.37423465988710103,2151.60846805765,3993.739323276324
1.0362663316582914,770.0402293625748,769.9254447269805,0.0766711074346828,0.25767002898958596,0.21583030060459296,0.37423465988710103,2151.3488964280896,3998.436013346341
1.0397554438860972,770.1854788216257,770.0710289597918,0.07708131605481978,0.25782445578910035,0.21567587380507858,0.3742346598871011,2151.088601478243,4003.1252745169913
1.043244556113903,770.3309774654718,770.216860047277,0.07749266669756544,0.2579793125135061,0.21552101708067287,0.3742346598871011,2150.8275818661077,4007.8071369997597
1.0467336683417086,770.4767262946754,770.3629387403139,0.07790516148454034,0.25813459996150667,0.2153657296326723,0.3742346598871011,2150.565836245424,4012.4816308270865
1.0502227805695143,770.6227263510751,770.5092658070586,0.07831880254409786,0.25829031893434024,0.21521001065983872,0.37423465988710114,2150.3033632656607,4017.148785854338
1.0537118927973201,770.7689787215471,770.6558420343639,0.07873359201135231,0.2584464702357902,0.21505385935838875,0.37423465988710114,2150.0401615719966,4021.8086317617913
1.0572010050251257,770.9154845421339,770.8026682293338,0.0791495320282105,0.258603054672197,0.2148972749219819,0.37423465988710114,2149.7762298052994,4026.4611980566406
1.0606901172529313,771.0622450025778,770.9497452210281,0.07956662474340656,0.2587600730524714,0.21474025654170753,0.3742346598871012,2149.511566602105,4031.1065140750156
1.064179229480737,771.2092613513024,771.0970738623323,0.0799848723125406,0.25891752618810876,0.21458280340607017,0.3742346598871012,2149.246170594594,4035.7446089840314
1.0676683417085429,771.3565349008807,771.244655032008,0.08040427689812141,0.2590754148932054,0.21442491470097352,0.3742346598871012,2148.980040410561,4040.375511783861
1.0711574539363484,771.5040670340445,771.3924896369449,0.08082484066961386,0.2592337399844763,0.21426658960970266,0.37423465988710125,2148.713174673387,4044.999251309843
1.0746465661641542,771.6518592102856,771.5405786146316,0.08124656580349136,0.25939250228127475,0.21410782731290418,0.37423465988710125,2148.4455720020073,4049.615856234631
1.07813567839196,771.7999129731074,771.6889229358701,0.08166945448329359,0.2595517026056144,0.21394862698856454,0.37423465988710125,2148.177231010872,4054.2253550703767
1.0816247906197656,771.9482299579943,771.8375236077577,0.08209350889969053,0.259711341782193,0.2137889878119859,0.3742346598871013,2147.908150309908,4058.827776170977
1.0851139028475711,772.096811901166,771.9863816769638,0.08251873125055315,0.25987142063841934,0.21362890895575962,0.3742346598871013,2147.6383285044703,4063.4231477343633
1.088603015075377,772.2456606491994,772.1354982333336,0.08294512374103144,0.2600319400044423,0.21346838958973666,0.3742346598871013,2147.367764195298,4068.011497804866
1.0920921273031827,772.3947781695985,772.2848744138498,0.08337268858364053,0.26019290071318346,0.21330742888099546,0.37423465988710136,2147.096455978455,4072.5928542756437
1.0955812395309883,772.5441665624102,772.4345114069939,0.08380142799835572,0.26035430360037304,0.21314602599380594,0.37423465988710136,2146.824402445272,4077.167244891197
1.0990703517587939,772.6938280729862,772.5844104575449,0.08423134421271768,0.260516149504589,0.21298418008958994,0.3742346598871014,2146.5516021822787,4081.7346972499686
1.1025594639865997,772.8437651060041,772.7345728718645,0.08466243946194818,0.2606784392673012,0.21282189032687776,0.3742346598871014,2146.278053771131,4086.295238807051
1.1060485762144054,772.9939802408691,772.885000023721,0.08509471598907797,0.2608411737329191,0.21265915586125986,0.3742346598871014,2146.0037557885303,4090.8488968769984
1.109537688442211,773.1444762486324,773.035693360706,0.08552817604508801,0.2610043537488452,0.21249597584533378,0.3742346598871015,2145.728706806133,4095.3956986367666
1.1130268006700168,773.2952561105703,773.1866544113136,0.08596282188906537,0.26116798016553344,0.2123323494286455,0.3742346598871015,2145.45290539045,4099.935671128795
1.1165159128978226,773.4463230385827,773.3378847927493,0.08639865578837512,0.26133205383655433,0.21216827575762465,0.37423465988710153,2145.176350102742,4104.468841264233
1.1200050251256282,773.5976804975855,773.4893862195507,0.08683568001885039,0.26149657561866607,0.21200375397551288,0.37423465988710153,2144.899039498896,4108.995235826347
1.1234941373534337,773.7493322300824,773.6411605131098,0.08727389686500218,0.2616615463718938,0.21183878322228514,0.37423465988710153,2144.6209721292903,4113.51488147411
1.1269832495812395,773.9012822831188,773.7932096121966,0.08771330862025108,0.26182696695961677,0.21167336263456218,0.3742346598871016,2144.3421465386527,4118.027804745989
1.1304723618090453,774.0535350378384,773.945535584597,0.08815391758718309,0.2619928382486646,0.21150749134551433,0.3742346598871016,2144.062561265893,4122.534032063981
1.1339614740368509,774.2060952418748,774.0981406399898,0.08859572607783278,0.26215916110942394,0.211341168484755,0.37423465988710164,2143.782214843926,4127.033589737878
1.1374505862646567,774.3589680448339,774.2510271442055,0.089038736413996,0.2623259364159561,0.21117439317822284,0.37423465988710164,2143.5011057994734,4131.526503969827
1.1409396984924625,774.5121590371348,774.4041976350246,0.08948295092757565,0.26249316504612735,0.2110071645480516,0.37423465988710164,2143.219232652842,4136.012800859179
1.144428810720268,774.6656742924978,774.5576548396946,0.08992837196096438,0.2626608478817529,0.21083948171242603,0.3742346598871017,2142.936593917684,4140.49250640768
1.1479179229480736,774.8195204143829,774.7114016943652,0.09037500186746816,0.2628289858087564,0.21067134378542257,0.3742346598871017,2142.653188100726,4144.965646525019
1.1514070351758794,774.9737045866975,774.8654413656694,0.09082284301177498,0.2629975797173463,0.21050274987683265,0.37423465988710175,2142.369013701471,4149.432247034785
1.1548961474036852,775.1282346291102,775.0197772747015,0.09127189777047419,0.2631666305022115,0.21033369909196745,0.37423465988710175,2142.0840692118727,4153.892333680851
1.1583852596314907,775.2831190573119,775.1744131236811,0.09172216853263206,0.2633361390627379,0.21016419053144106,0.3742346598871018,2141.798353115965,4158.345932134233
1.1618743718592965,775.4383671485808,775.3293529256242,0.09217365770042998,0.2635061063032488,0.20999422329093018,0.3742346598871018,2141.5118638894614,4162.7930680004765
1.1653634840871023,775.5939890130074,775.484601037382,0.0926263676898722,0.26367653313327105,0.2098237964609079,0.3742346598871018,2141.224599999304,4167.233766827592
1.168852596314908,775.7499956707328,775.6401621964575,0.09308030093157164,0.2638474204678313,0.20965290912634768,0.37423465988710186,2140.9365599031635,4171.668054114615
1.1723417085427137,775.9063991355434,775.7960415620553,0.09353545987162255,0.26401876922778406,0.20948156036639487,0.37423465988710186,2140.6477420488895,4176.095955320816
1.1758308207705195,776.0632125051458,775.9522447608795,0.09399184697256995,0.2641905803401771,0.2093097492540018,0.3742346598871019,2140.3581448738914,4180.5174958756315
1.179319932998325,776.2204500584058,776.1087779382515,0.09444946471448769,0.264362854738657,0.20913747485552195,0.3742346598871019,2140.0677668044555,4184.932701189362
1.1828090452261306,776.3781273597964,776.2656478151905,0.0949083155961777,0.26453559336392063,0.20896473623025832,0.374234659887102,2139.7766062549854,4189.3415966646935
1.1862981574539364,776.5362613712173,776.422861752165,0.09536840213650459,0.2647087971642177,0.2087915324299613,0.374234659887102,2139.4846616271534,4193.744207709107
1.1897872696817422,776.6948705712706,776.5804278203033,0.09582972687588176,0.26488246709591007,0.20861786249826889,0.37423465988710203,2139.1919313089584,4198.14055974823
1.1932763819095478,776.853975081949,776.7383548809264,0.09629229237792723,0.2650566041240954,0.20844372547008358,0.37423465988710203,2138.898413673675,4202.530678240184
1.1967654941373533,777.0135968025445,776.8966526743443,0.09675610123130886,0.26523120922330135,0.20826912037087758,0.3742346598871021,2138.604107078682,4206.914588690993
1.2002546063651591,777.1737595504017,777.0553319189316,0.09722115605180154,0.26540628337826044,0.20809404621591848,0.3742346598871021,2138.3090098641583,4211.2923166711
1.203743718592965,777.3344892079026,777.214404421565,0.0976874594845808,0.26558182758477333,0.20791850200940565,0.37423465988710214,2138.013120351627,4215.663887833043
1.2072328308207705,777.4958138747986,777.3738832005572,0.0981550142067809,0.26575784285067167,0.20774248674350732,0.37423465988710214,2137.7164368423314,4220.029327930324
1.210721943048576,777.6577640246713,777.5337826222536,0.09862382293034695,0.2659343301968921,0.20756599939728684,0.3742346598871022,2137.4189576154263,4224.388662837509
1.2142110552763818,777.8203726639174,777.6941185524474,0.09909388840521424,0.26611129065867306,0.2073890389355059,0.3742346598871022,2137.1206809259597,4228.741918571581
1.2177001675041876,777.9836754912085,777.854908523726,0.0995652134228506,0.2662887252868882,0.20721160430729077,0.37423465988710225,2136.821605002626,4233.089121314524
1.2211892797319932,778.1477110548674,778.0161719197359,0.10003780082020032,0.26646663514953123,0.20703369444464775,0.37423465988710225,2136.521728045262,4237.43029743715
1.224678391959799,778.3125209050381,778.177930177159,0.10051165348407037,0.2666450213333671,0.20685530826081186,0.3742346598871023,2136.2210482220653,4241.765473524103
1.2281675041876048,778.4781497369086,778.3402070058753,0.10098677435600147,0.2668238849457658,0.20667644464841312,0.3742346598871023,2135.9195636665017,4246.09467639996
1.2316566164154104,778.6446455205847,778.5030286273483,0.1014631664376681,0.26700322711673535,0.2064971024774436,0.37423465988710236,2135.617272473881,4250.417933156345
1.2351457286432161,778.8120596125284,778.6664240306558,0.1019408327968515,0.26718304900117,0.2063172805930089,0.37423465988710236,2135.3141726975637,4254.735271179875
1.238634840871022,778.9804468427878,778.83042524479,0.10241977657402719,0.2673633517813307,0.20613697781284823,0.3742346598871024,2135.0102623447838,4259.0467181807535
1.2421239530988275,779.1498655715932,778.9950676248309,0.10290000098960733,0.2675441366695711,0.20595619292460784,0.3742346598871024,2134.7055393720516,4263.35230222176
1.245613065326633,779.3203777083108,779.1603901483445,0.10338150935187004,0.26772540491132285,0.2057749246828561,0.37423465988710247,2134.4000016801233,4267.652051747326
1.2491021775544389,779.4920486852967,779.3264357168572,0.10386430506560054,0.2679071577883486,0.2055931718058303,0.37423465988710247,2134.0936471085165,4271.945995612337
1.2525912897822447,779.6649473789175,779.4932514555197,0.10434839164145582,0.26808939662226744,0.20541093297191151,0.3742346598871025,2133.7864734295686,4276.2341631102045
1.2560804020100502,779.839145969995,779.660889002137,0.10483377270604832,0.26827212277835083,0.20522820681582812,0.3742346598871026,2133.478478342039,4280.516583999744
1.2595695142378558,780.0147197362284,779.8294047746616,0.10532045201272303,0.26845533766957996,0.20504499192459896,0.3742346598871026,2133.1696594642694,4284.793288530294
1.2630586264656616,780.1917467698513,779.9988602041258,0.10580843345297576,0.2686390427609442,0.20486128683323476,0.37423465988710264,2132.860014326939,4289.064307464438
1.2665477386934674,780.3703076149236,780.1693219179699,0.10629772106843073,0.26882323957395,0.20467709002022896,0.37423465988710264,2132.5495403654636,4293.329672097703
1.2700368509212732,780.5504848203054,780.3408618569853,0.10678831906325935,0.2690079296912963,0.20449239990288268,0.3742346598871027,2132.2382349121162,4297.589414274523
1.273525963149079,780.7323624065237,780.5135573078506,0.10728023181688306,0.26919311476165647,0.20430721483252248,0.3742346598871027,2131.926095187967,4301.843566399751
1.2770150753768845,780.9160252474123,780.6874908327412,0.10777346389676168,0.2693787965044927,0.20412153308968625,0.37423465988710275,2131.613118294766,4306.092161445018
1.2793411501954217,781.039500954393,780.8041774153367,0.10810302058838617,0.26950286114537986,0.20399746844879907,0.37423465988710275,2131.4040004500725,4308.921487414437
1.281667225013959,781.1638329847102,780.9214802702609,0.10843316722687688,0.26962714787717873,0.2038731817170002,0.3742346598871028,2131.194508258808,4311.748368541683
1.2839932998324959,781.2890461822115,781.039427441465,0.10876390532068309,0.2697516572677589,0.20374867232642005,0.3742346598871028,2130.9846407637983,4314.572815012757
1.2863193746510329,781.4151650466839,781.1580477820507,0.1090952364232916,0.2698763899019447,0.20362393969223425,0.37423465988710286,2130.774396979289,4317.394837120965
1.28864544946957,781.5422136163489,781.277370866642,0.10942716213456426,0.2700013463820188,0.20349898321216014,0.37423465988710286,2130.563775890099,4320.214445264075
1.2909715242881072,781.6702153477212,781.3974268894259,0.10975968410194667,0.27012652732817727,0.2033738022660017,0.37423465988710286,2130.3527764508535,4323.031649940804
1.2932975991066444,781.7991929940491,781.5182465480272,0.11009280402152632,0.2702519333789277,0.20324839621525126,0.3742346598871029,2130.141397585312,4325.846461746622
1.2956236739251814,781.9291684836572,781.639860913684,0.11042652363891824,0.270377565191423,0.20312276440275595,0.3742346598871029,2129.9296381858076,4328.658891368871
1.2979497487437186,782.060162799584,781.762301288515,0.11076084474995769,0.2705034234417218,0.2029969061524572,0.37423465988710297,2129.7174971128056,4331.468949581217
1.3002758235622558,782.1921958619612,781.8855990509918,0.11109576920117979,0.2706295088249691,0.20287082076920981,0.37423465988710297,2129.5049731946,4334.276647237432
1.3026018983807928,782.3252864146017,782.0097854910573,0.11143129889006846,0.2707558220554903,0.20274450753868867,0.374234659887103,2129.2920652271564,4337.08199526455
1.30492797319933,782.4594519172539,782.1348916366364,0.11176743576505867,0.2708823638667915,0.20261796572738744,0.374234659887103,2129.078771974109,4339.885004655423
1.3072540480178672,782.5947084449374,782.2609480735686,0.11210418182527838,0.27100913501146284,0.2024911945827161,0.374234659887103,2128.8650921669255,4342.685686460713
1.3095801228364043,782.731070595704,782.3879847612322,0.11244153912002047,0.2711361362609794,0.20236419333319958,0.3742346598871031,2128.651024505242,4345.484051780379
1.3119061976549415,782.8685514080594,782.5160308463293,0.11277950974793727,0.27126336840539805,0.2022369611887809,0.3742346598871031,2128.436567657373,4348.280111754695
1.3142322724734787,783.0071622891496,782.6451144774304,0.11311809585595459,0.2713908322529488,0.20210949734123013,0.37423465988710314,2128.221720261003,4351.07387755489
1.316558347292016,783.1469129546525,782.7752626229576,0.11345729963790584,0.27151852862952036,0.2019818009646586,0.37423465988710314,2128.00648092405,4353.865360373449
1.318884422110553,783.287811381138,782.9065008952854,0.11379712333289063,0.2716464583780423,0.20185387121613665,0.3742346598871032,2127.7908482257094,4356.654571414167
1.3212104969290899,783.4298637714584,783.0388533835737,0.11413756922336647,0.27177462235776667,0.20172570723641225,0.3742346598871032,2127.5748207176644,4359.441521882017
1.323536571747627,783.5730745335227,783.1723424978163,0.11447863963298553,0.27190302144345374,0.2015973081507252,0.3742346598871032,2127.358396925458,4362.226222972919
1.3258626465661643,783.7174462725944,783.3069888263859,0.11482033692419254,0.2720316565244674,0.20146867306971153,0.37423465988710325,2127.1415753500173,4365.008685863481
1.3281887213847015,783.8629797970381,783.4428110091073,0.11516266349560318,0.27216052850378863,0.20133980109039032,0.37423465988710325,2126.9243544693186,4367.788921700795
1.3305147962032384,784.0096741372327,783.5798256275805,0.11550562177918489,0.27228963829695385,0.2012106912972251,0.3742346598871033,2126.7067327401737,4370.566941592357
1.3328408710217756,784.1575265771748,783.7180471141379,0.11584921423726494,0.27241898683092874,0.2010813427632502,0.3742346598871033,2126.488708600131,4373.34275659619
1.3351669458403128,784.3065326981141,783.857487680451,0.11619344335939233,0.2725485750429269,0.20095175455125208,0.37423465988710336,2126.2702804694645,4376.116377711243
1.3374930206588498,784.4566864334047,783.998157266418,0.11653831165908188,0.272678403879184,0.20082192571499496,0.37423465988710336,2126.0514467532416,4378.88781586811
1.339819095477387,784.6079801336232,784.1400635095844,0.11688382167046957,0.27280847429369887,0.20069185530048012,0.3742346598871034,2125.832205843444,4381.657081920161
1.3421451702959242,784.7604046408887,784.2832117349685,0.11722997594490832,0.27293878724695164,0.2005615423472273,0.3742346598871034,2125.6125561211293,4384.424186635103
1.3444712451144614,784.9139493712415,784.4276049648195,0.11757677704753386,0.2730693437046112,0.2004309858895677,0.37423465988710347,2125.3924959586093,4387.189140687048
1.3467973199329986,785.068602403878,784.5732439475029,0.11792422755382909,0.27320014463624187,0.2003001849579371,0.37423465988710347,2125.1720237216286,4389.951954649098
1.3491233947515358,785.2243505760093,784.7201272044279,0.11827233004621433,0.27333119101401926,0.20016913858015967,0.3742346598871035,2124.951137771532,4392.71263898651
1.3514494695700725,785.3811795821065,784.8682510936818,0.11862108711068937,0.2734624838114669,0.20003784578271205,0.3742346598871035,2124.7298364673916,4395.471204050433
1.3537755443886097,785.5390740763117,785.0176098888419,0.1189705013335516,0.2735940240022201,0.19990630559195885,0.3742346598871036,2124.5081181680903,4398.2276600722635
1.3561016192071467,785.6980177768357,785.1681958712775,0.1193205752982108,0.27372581255882716,0.1997745170353518,0.3742346598871036,2124.285981234344,4400.982017158611
1.3584276940256839,785.8579935712133,785.3199994341558,0.11967131158212171,0.2738578504515946,0.19964247914258434,0.37423465988710364,2124.063424030647,4403.734285286884
1.360753768844221,786.0189836213661,785.473009196301,0.12002271275384922,0.27399013864748223,0.1995101909466967,0.37423465988710364,2123.840444927136,4406.484474301498
1.3630798436627583,786.1809694674994,785.6272121240416,0.12037478137028143,0.2741226781090541,0.19937765148512485,0.3742346598871037,2123.617042301355,4409.232593910687
1.3654059184812954,786.3439321299533,785.7825936592025,0.12072751997400145,0.27425546979348886,0.1992448598006901,0.3742346598871037,2123.393214539926,4411.978653683919
1.3677319932998326,786.50785220823,785.93913785145,0.12108093109082632,0.2743885146516536,0.19911181494252536,0.37423465988710375,2123.1689600401096,4414.722663049887
1.3700580681183698,786.672709976512,786.0968274932901,0.1214350172275194,0.2745218136272423,0.19897851596693664,0.37423465988710375,2122.944277211258,4417.464631295061
1.372384142936907,786.8384854750961,786.2556442561181,0.12178978086967954,0.27465536765598153,0.19884496193819742,0.3742346598871038,2122.719164476151,4420.204567562767
1.374710217755444,787.0051585972635,786.415568825852,0.12214522447980783,0.2747891776649024,0.19871115192927655,0.3742346598871038,2122.493620272227,4422.942480852778
1.3770362925739812,787.172709171204,786.5765810368179,0.12250135049555151,0.2749232445716796,0.19857708502249935,0.37423465988710386,2122.267643052694,4425.678380021379
1.3793623673925184,787.3411170367078,786.7386600027017,0.12285816132812076,0.2750575692840353,0.19844276031014366,0.37423465988710386,2122.041231287536,4428.412273781868
1.3816884422110554,787.5103621164209,786.9017842435385,0.12321565936087453,0.2751921526992069,0.19830817689497207,0.3742346598871039,2121.8143834644097,4431.144170705479
1.3840145170295923,787.6804244815434,787.065931807855,0.1235738469480682,0.27532699570347535,0.1981733338907036,0.3742346598871039,2121.5870980894388,4433.874079222677
1.3863405918481295,787.8512844119213,787.2310803892394,0.12393272641375488,0.27546209917175185,0.1980382304224271,0.37423465988710397,2121.359373687912,4436.602007624794
1.3886666666666667,788.022922450547,787.3972074367481,0.12429230005083151,0.27559746396721846,0.19790286562696047,0.374234659887104,2121.131208804888,4439.327964065981
1.390992741485204,788.1953194525411,787.5642902586984,0.12465257012021914,0.2757330909410197,0.19776723865315926,0.374234659887104,2120.902602005716,4442.051956565434
1.3933188163037409,788.3684566287385,787.7323061195247,0.12501353885016642,0.2758689809320002,0.19763134866217877,0.3742346598871041,2120.673551876476,4444.773993009866
1.395644891122278,788.5423155840414,787.9012323294857,0.12537520843566427,0.27600513476648436,0.19749519482769456,0.3742346598871041,2120.4440570243523,4447.4940811561955
1.3979709659408153,788.7168783507379,788.0710463271218,0.12573758103795915,0.27614155325809336,0.19735877633608556,0.37423465988710414,2120.214116077942,4450.212228634413
1.4002970407593522,788.8921274170142,788.2417257544491,0.12610065878415241,0.276278237207594,0.19722209238658497,0.37423465988710414,2119.9837276875073,4452.928442950613
1.4026231155778894,789.068045750904,788.4132485249613,0.12646444376687252,0.27641518740277543,0.19708514219140355,0.3742346598871042,2119.7528905251866,4455.642731490144
1.4049491903964266,789.2446168199441,788.5855928845799,0.12682893804400608,0.2765524046183479,0.19694792497583102,0.37423465988710425,2119.5216032851617,4458.355101520868
1.4072752652149638,789.4218246068041,788.758737465752,0.12719414363847512,0.2766898896158591,0.19681043997831985,0.37423465988710425,2119.289864683803,4461.065560196501
1.409601340033501,789.599653621176,788.9326613349438,0.12756006253804614,0.2768276431436219,0.19667268645055705,0.3742346598871043,2119.0576734597867,4463.774114560007
1.4119274148520382,789.7780889082005,789.1073440338158,0.12792669669515774,0.27696566593664973,0.19653466365752922,0.3742346598871043,2118.825028374207,4466.480771547033
1.414253489670575,789.9571160537146,789.2827656143996,0.12829404802675265,0.27710395871659327,0.19639637087758569,0.37423465988710436,2118.5919282106815,4469.185537989359
1.4165795644891122,790.136721186592,789.4589066686126,0.12866211841410116,0.277242522191674,0.19625780740250495,0.3742346598871044,2118.3583717754636,4471.888420618354
1.4189056393076493,790.3168909784492,789.6357483524669,0.12903090970260103,0.2773813570566088,0.19611897253757016,0.3742346598871044,2118.1243578975696,4474.589426068418
1.4212317141261865,790.4976126409731,789.8132724053338,0.12940042370154117,0.27752046399252117,0.1959798656016578,0.37423465988710447,2117.8898854289278,4477.288560880395
1.4235577889447237,790.6788739211211,789.9914611646316,0.12977066218381483,0.27765984366683294,0.19584048592734601,0.3742346598871045,2117.6549532445615,4479.985831504949
1.4258838637632607,790.8606630944297,790.1702975762978,0.13014162688556788,0.2777994967331322,0.19570083286104673,0.3742346598871045,2117.419560242812,4482.681244305885
1.428209938581798,791.0429689566566,790.3497652014066,0.13051331950576883,0.2779394238310113,0.19556090576316765,0.3742346598871046,2117.1837053456106,4485.374805563424
1.430536013400335,791.2257808139643,790.5298482192798,0.13088574170568523,0.27807962558586957,0.1954207040083094,0.3742346598871046,2116.9473874988125,4488.066521477393
1.4328620882188723,791.4090884718443,790.7105314274272,0.13125889510825245,0.2782201026086759,0.195280226985503,0.37423465988710464,2116.7106056725947,4490.756398170351
1.4351881630374095,791.5928822229622,790.891800238643,0.1316327812973195,0.2783608554956849,0.19513947409849405,0.3742346598871047,2116.473358861938,4493.444441690635
1.4375142378559465,791.7771528340937,791.0736406755616,0.13200740181675602,0.2785018848281004,0.19499844476607855,0.3742346598871047,2116.2356460871906,4496.130658015315
1.4398403126744836,791.9618915323049,791.2560393629682,0.13238275816940445,0.2786431911716812,0.19485713842249774,0.37423465988710475,2115.997466394734,4498.815053053065
1.4421663874930208,792.1470899905165,791.4389835181339,0.1327588518158601,0.27878477507628185,0.1947155545178971,0.3742346598871048,2115.758818857759,4501.497632646935
1.4444924623115578,792.3327403125832,791.6224609394325,0.13313568417306168,0.2789266370753219,0.19457369251885703,0.3742346598871048,2115.5197025771563,4504.178402577036
1.4468185371300948,792.5188350179982,791.8064599934751,0.13351325661267305,0.27906877768517685,0.19443155190900213,0.37423465988710486,2115.280116682547,4506.8573685631245
1.449144611948632,792.7053670263308,791.9909696009817,0.13389157045923636,0.2792111974044827,0.1942891321896963,0.3742346598871049,2115.040060333452,4509.534536267086
1.4514706867671692,792.8923296414825,792.1759792215897,0.1342706269880753,0.2793538967133467,0.19414643288083225,0.37423465988710497,2114.799532720624,4512.209911295324
1.4537967615857064,793.0797165358474,792.3614788377843,0.13465042742292554,0.2794968760724555,0.19400345352172343,0.37423465988710497,2114.55853306755,4514.883499201051
1.4561228364042436,793.2675217344414,792.5474589381129,0.13503097293326838,0.27964013592207104,0.19386019367210794,0.374234659887105,2114.317060632144,4517.555305486479
1.4584489112227808,793.4557395990639,792.7339104998385,0.13541226463134046,0.2797836766809049,0.19371665291327403,0.3742346598871051,2114.0751147086444,4520.2253356049105
1.460774986041318,793.6443648125403,792.9208249711623,0.13579430356879185,0.27992749874486056,0.1935728308493184,0.3742346598871051,2113.8326946297343,4522.893594962741
1.463101060859855,793.8333923630885,793.108194253135,0.13617709073296175,0.2800716024856308,0.19342872710854817,0.37423465988710514,2113.5897997689044,4525.560088921353
1.4654271356783921,794.0228175288426,793.2960106813629,0.1365606270427381,0.28021598824913946,0.1932843413450395,0.3742346598871052,2113.346429543081,4528.224822798928
1.4677532104969293,794.2126358625609,793.4842670076004,0.1369449133439654,0.28036065635381247,0.1931396732403665,0.37423465988710525,2113.1025834155394,4530.887801872158
1.4700792853154663,794.4028431765378,793.6729563813054,0.1373299504043615,0.28050560708866423,0.19299472250551472,0.37423465988710525,2112.8582608991296,4533.549031377871
1.4724053601340035,794.5934355277309,793.8620723312288,0.13771573890790048,0.2806508407111831,0.19284948888299583,0.3742346598871053,2112.613461559841,4536.208516514562
1.4747314349525407,794.7844092031131,794.0516087470899,0.13810227944861553,0.2807963574449983,0.1927039721491806,0.37423465988710536,2112.368185020734,4538.866262443838
1.4770575097710779,794.975760705248,794.241559861387,0.13848957252377103,0.2809421574773096,0.19255817211686932,0.3742346598871054,2112.1224309662734,4541.522274291786
1.479383584589615,795.1674867380855,794.4319202313781,0.13887761852634908,0.2810882409560587,0.19241208863812023,0.37423465988710547,2111.8761991470947,4544.176557150234
1.4817096594081522,795.3595841929694,794.6226847212579,0.13926641773679008,0.28123460798681993,0.192265721607359,0.37423465988710547,2111.6294893852464,4546.82911607796
1.484035734226689,795.5520501348408,794.8138484845529,0.13965597031392252,0.2813812586293858,0.19211907096479316,0.3742346598871055,2111.3823015799458,4549.4799561017935
1.4863618090452262,795.7448817886211,795.005406946743,0.14004627628501057,0.2815281928940201,0.19197213670015886,0.3742346598871056,2111.1346357138914,4552.129082217654
1.4886878838637632,795.9380765257503,795.1973557881154,0.14043733553484117,0.2816754107373498,0.19182491885682915,0.37423465988710564,2110.8864918601917,4554.776499391503
1.4910139586823004,796.1316318508539,795.3896909268466,0.14082914779376748,0.281822912057864,0.191677417536315,0.3742346598871057,2110.637870189949,4557.422212560223
1.4933400335008375,796.3255453885077,795.5824085023048,0.1412217126246152,0.2819706966909842,0.19152963290319475,0.3742346598871057,2110.388770980569,4560.06622663242
1.4956661083193747,796.5198148700659,795.7755048585559,0.14161502940835205,0.28211876440367023,0.19138156519050872,0.37423465988710575,2110.1391946248546,4562.708546489151
1.497992183137912,796.7144381205125,795.9689765280534,0.1420090973284115,0.282267114888518,0.19123321470566096,0.3742346598871058,2109.8891416409515,4565.349176984575
1.500318257956449,796.9094130452935,796.1628202154849,0.14240391535355126,0.28241574775730693,0.191084581836872,0.37423465988710586,2109.638612683228,4567.988122946537
1.502644332774986,797.104737617085,796.3570327817437,0.14279948221911823,0.2825646625339468,0.19093566706023216,0.3742346598871059,2109.38760855416,4570.625389177073
1.5049704075935233,797.3004098624425,796.5516112279892,0.14319579640657862,0.28271385864677157,0.19078647094740742,0.37423465988710597,2109.1361302173227,4573.260980452838
1.5072964824120603,797.496427848281,796.7465526797538,0.143592856121162,0.28286333542012343,0.19063699417405552,0.37423465988710597,2108.8841788115747,4575.89490152547
1.5096225572305972,797.6927896681234,796.9418543710507,0.14399065926745333,0.2830130920651642,0.19048723752901478,0.374234659887106,2108.6317556665467,4578.527157121871
1.5119486320491344,797.8894934280552,797.137513628429,0.144389203422754,0.2831631276698467,0.19033720192433223,0.3742346598871061,2108.3788623195446,4581.15775194442
1.5142747068676716,798.0865372323176,797.3335278549234,0.14478848580801804,0.28331344118797364,0.19018688840620532,0.37423465988710614,2108.125500533992,4583.7866906711
1.5166007816862088,798.2839191684653,797.5298945138328,0.14518850325615432,0.28346403142726445,0.19003629816691447,0.3742346598871062,2107.871672319545,4586.4139779555535
1.518926856504746,798.4816372920124,797.7266111122666,0.1455892521774679,0.28361489703634557,0.18988543255783336,0.37423465988710625,2107.6173799540175,4589.03961842706
1.5212529313232832,798.6796896104808,797.9236751843829,0.145990728521997,0.2837660364905717,0.18973429310360726,0.3742346598871063,2107.3626260072847,4591.663616690419
1.5235790061418204,798.8780740667676,798.1210842742463,0.1463929277384825,0.2839174480765796,0.18958288151759936,0.37423465988710636,2107.1074133673155,4594.2859773257605
1.5259050809603574,799.0767885217315,798.3188359182208,0.14679584472968904,0.2840691298754682,0.18943119971871078,0.3742346598871064,2106.8517452685237,4596.906704888257
1.5282311557788946,799.2758307359026,798.5169276268116,0.14719947380377432,0.28422107974449123,0.18927924984968775,0.37423465988710647,2106.5956253226277,4599.525803907751
1.5305572305974318,799.4751983502067,798.715356865864,0.14760380862138434,0.28437329529714067,0.18912703429703825,0.3742346598871065,2106.3390575522194,4602.143278888271
1.5328833054159687,799.6748888655942,798.9141210370196,0.1480088421381298,0.28452577388149164,0.1889745557126873,0.3742346598871065,2106.082046427265,4604.7591343074655
1.535209380234506,799.8748996214518,799.1132174573265,0.14841456654207838,0.2846785125566705,0.18882181703750847,0.3742346598871066,2105.8245969047707,4607.373374615909
1.5375354550530431,800.0752277726749,799.3126433378919,0.14882097318587437,0.28483150806730073,0.18866882152687825,0.37423465988710664,2105.5667144718545,4609.986004236306
1.5398615298715803,800.2758702652654,799.5123957614625,0.14922805251307825,0.28498475681577307,0.1885155727784059,0.3742346598871067,2105.308405192487,4612.597027562575
1.5421876046901175,800.476823810321,799.7124716588087,0.14963579397829774,0.28513825483217775,0.18836207476200117,0.37423465988710675,2105.049675758171,4615.206448958796
1.5445136795086547,800.6780848562685,799.9128677837856,0.15004418596066296,0.28529199774173175,0.1882083318524472,0.3742346598871068,2104.790533542847,4617.814272758027
1.5468397543271915,800.8796495591935,800.1135806869362,0.1504532156701836,0.28544598072952576,0.18805434886465316,0.37423465988710686,2104.530986662311,4620.420503260982
1.5491658291457286,801.0815137511131,800.3146066874974,0.15086286904651286,0.2856001985024133,0.18790013109176568,0.3742346598871069,2104.271044038457,4623.025144734538
1.5514919039642656,801.2836729060314,800.5159418436664,0.15127313064963305,0.2857546452478579,0.18774568434632108,0.37423465988710697,2104.010715468637,4625.628201410094
1.5538179787828028,801.48612210362,800.7175819209776,0.15168398354197896,0.28590931458955776,0.1875910150046212,0.374234659887107,2103.7500117004624,4628.229677481748
1.55614405360134,801.6888559903624,800.9195223586422,0.15209540916151584,0.28606419953966455,0.1874361300545144,0.37423465988710714,2103.48894451234,4630.829577104276
1.5584701284198772,801.8918687380022,801.1217582336952,0.15250738718530632,0.286219292447422,0.18728103714675698,0.3742346598871072,2103.227526800044,4633.427904390933
1.5607962032384144,802.0951539991426,801.3242842228027,0.15291989538312425,0.28637458494405743,0.18712574465012152,0.37423465988710725,2102.9657726696055,4636.024663411016
1.5631222780569516,802.2987048598499,801.5270945615771,0.15333290946071482,0.2865300678837757,0.1869702617104032,0.3742346598871073,2102.703697536771,4638.619858187222
1.5654483528754888,802.5025137891279,801.7301830012598,0.15374640289235547,0.2866857312807252,0.18681459831345376,0.37423465988710736,2102.441318233248,4641.213492692741
1.567774427694026,802.7065725851475,801.9335427626372,0.15416034674245083,0.2868415642418354,0.18665876535234355,0.3742346598871074,2102.178653119912,4643.805570848112
1.570100502512563,802.9108723181383,802.1371664870704,0.1545747094759943,0.2869975548954637,0.18650277469871523,0.37423465988710747,2101.9157222070753,4646.396096517793
1.5724265773311001,803.1154032698836,802.3410461845369,0.1549894567578602,0.287153690315837,0.18634663927834197,0.3742346598871075,2101.652547281848,4648.985073506443
1.574752652149637,803.3201548697957,802.5451731786079,0.15540455124104932,0.2873099564433346,0.1861903731508443,0.3742346598871076,2101.389152042501,4651.572505554907
1.577078726968174,803.5251156276022,802.749538048318,0.15581995234421397,0.2874663380007359,0.18603399159344305,0.37423465988710763,2101.125562239639,4654.158396335873
1.5794048017867113,803.7302730627326,802.9541305669214,0.15623561601902555,0.2876228184056433,0.18587751118853568,0.37423465988710775,2100.861805823813,4656.742749449187
1.5817308766052485,803.9356136305701,803.1589396375813,0.1566514945082418,0.28777937967940465,0.18572094991477434,0.3742346598871078,2100.5979130990418,4659.325568416829
1.5840569514237857,804.1411226458201,803.3639532260969,0.15706753609566818,0.2879360023529839,0.18556432724119504,0.37423465988710786,2100.333916881466,4661.90685667752
1.5863830262423229,804.346784203354,803.569158290849,0.15748368484960867,0.2880926653703809,0.18540766422379806,0.3742346598871079,2100.069852662144,4664.486617580942
1.5887091010608598,804.5525810970029,803.7745407102241,0.15789988036185945,0.2882493459903729,0.18525098360380607,0.37423465988710797,2099.8057587726703,4667.064854381582
1.591035175879397,804.7584947369224,803.9800852078838,0.1583160574848202,0.2884060196875479,0.18509430990663106,0.374234659887108,2099.5416765519894,4669.641570232186
1.5933612506979342,804.9645050662971,804.1857752763567,0.1587321460698822,0.2885626600538184,0.18493766954036053,0.37423465988710813,2099.2776505123998,4672.216768176796
1.5956873255164712,805.1705904783389,804.3915930995614,0.1591480707108996,0.28871923870184885,0.18478109089233014,0.3742346598871082,2099.0137285023325,4674.790451143417
1.5980134003350084,805.3767277347197,804.5975194750171,0.15956375049724958,0.2888757251720927,0.18462460442208628,0.37423465988710825,2098.7499618630454,4677.362621936275
1.6003394751535456,805.582891886789,804.8035337366565,0.15997909878173544,0.2890320868454176,0.18446824274876136,0.3742346598871083,2098.486405575898,4679.933283227712
1.6026655499720828,805.789056201151,805.0096136793347,0.1603940229693631,0.2891882888635883,0.18431204073059063,0.3742346598871084,2098.223118396383,4682.502437549717
1.60499162479062,805.9951920913987,805.2157354863087,0.16080842433380904,0.28934429406017437,0.18415603553400456,0.37423465988710847,2097.960162970584,4685.070087285132
1.6073176996091572,806.2012690580344,805.42187366116,0.16122219786916436,0.28950006290473773,0.18400026668944122,0.3742346598871085,2097.697605929249,4687.636234658577
1.609643774427694,806.4072546388261,805.6280009658257,0.1616352321852526,0.2896555534634242,0.18384477613075476,0.3742346598871086,2097.435517954221,4690.200881727128
1.611969849246231,806.6131143720501,805.8340883665949,0.16204740945543408,0.28981072137931396,0.18368960821486496,0.3742346598871087,2097.1739738115502,4692.764030370818
1.614295924064768,806.818811775241,806.0401049901059,0.16245860542626928,0.2899655198760595,0.18353480971811942,0.37423465988710874,2096.913052345371,4695.32568228304
1.6166219988833053,807.0243083421901,806.2460180915317,0.16286868949867314,0.2901198997884368,0.18338042980574218,0.3742346598871088,2096.652836426399,4697.8858389609295
1.6189480737018425,807.2295635609962,806.4517930372658,0.1632775248901712,0.2902738096234279,0.183226519970751,0.3742346598871089,2096.393412848977,4700.444501695829
1.6212741485203797,807.4345349559443,806.6573933044842,0.16368496888751516,0.29042719565532105,0.1830731339388579,0.37423465988710897,2096.1348721707764,4703.001671563953
1.6236002233389168,807.6391781558723,806.8627804999778,0.16409087319816237,0.29058000205802753,0.18292032753615142,0.374234659887109,2095.8773084897716,4705.55734941738
1.625926298157454,807.8434469914423,807.0679144005753,0.16449508440791288,0.29073217107736393,0.182768158516815,0.37423465988710913,2095.6208191538476,4708.1115358755
1.6282523729759912,808.0472936233676,807.2727530173269,0.16489744455029298,0.2908836432454016,0.18261668634877734,0.3742346598871092,2095.3655043995013,4710.664231317093
1.6305784477945284,808.2506687031433,807.4772526853596,0.16529779179104628,0.2910343576381496,0.18246597195602937,0.37423465988710924,2095.1114669175045,4713.21543587317
1.6329045226130654,808.453521567176,807.6813681809566,0.1656959612283625,0.29118425217680804,0.18231607741737088,0.37423465988710936,2094.858811345123,4715.7651494207485
1.6352305974316026,808.6558004644277,807.8850528669338,0.16609178580626419,0.2913332639716213,0.18216706562255766,0.3742346598871094,2094.6076436865337,4718.313371577742
1.6375566722501393,808.8574528167825,808.0882588668113,0.1664850973349773,0.2914813297060054,0.18201899988817358,0.3742346598871095,2094.358070665357,4720.860101699104
1.6398827470686765,809.0584255103446,808.2909372675904,0.16687572760824457,0.29162838605717106,0.18187194353700786,0.3742346598871096,2094.1101990156712,4723.405338874399
1.6422088218872137,809.258665214813,808.493038350192,0.16726350960356604,0.2917743701479656,0.18172595944621334,0.3742346598871097,2093.8641347204116,4725.949081926927
1.644534896705751,809.458118727008,808.6945118457927,0.1676482787474664,0.29191922002319387,0.18158110957098508,0.37423465988710974,2093.6199822085005,4728.491329414544
1.6468609715242881,809.6567333335855,808.8953072154525,0.16802987422430363,0.29206287514233165,0.1814374544518473,0.37423465988710986,2093.3778435243553,4731.032079632264
1.6491870463428253,809.8544571870433,809.0953739496066,0.16840814030408693,0.29220527687939474,0.1812950527147842,0.3742346598871099,2093.1378174853294,4733.571330616716
1.6515131211613623,810.0512396883373,809.2946618832195,0.1687829276624841,0.292346369019868,0.18115396057431096,0.37423465988711,2092.899998844111,4736.109080152511
1.6538391959798995,810.2470318688621,809.4931215217254,0.16915409466484235,0.29248609824408656,0.1810142313500924,0.3742346598871101,2092.6644774739575,4738.645325780501
1.6561652707984367,810.4417867642289,809.6907043723446,0.1695215085858032,0.29262441458637123,0.18087591500780772,0.3742346598871102,2092.4313375947972,4741.180064807918
1.6584913456169736,810.6354597722479,809.887363274999,0.16988504673698965,0.2927612718595566,0.18073905773462234,0.37423465988711024,2092.2006570576627,4743.713294320311
1.6608174204355108,810.82800898779,810.0830527268772,0.17024459747735002,0.2928966280353442,0.18060370155883476,0.37423465988711035,2091.9725067035865,4746.245011195169
1.663143495254048,811.0193955077625,810.2777291947422,0.17060006108389836,0.29303044557210084,0.1804698840220781,0.3742346598871104,2091.7469498110772,4748.775212117102
1.6654695700725852,811.2095837002719,810.4713514093246,0.17095135046476684,0.2931626916832937,0.18033763791088528,0.3742346598871105,2091.524041643657,4751.303893594385
1.6677956448911224,811.3985414330871,810.6638806365958,0.17129839170127653,0.2932933385415576,0.18020699105262136,0.3742346598871106,2091.3038291058956,4753.831051976689
1.6701217197096596,811.5862402577583,810.8552809213442,0.1716411244111134,0.29342236341541644,0.18007796617876254,0.3742346598871107,2091.0863505129596,4756.356683473752
1.6724477945281968,811.7726555470532,811.0455192992542,0.17197950193012507,0.2935497487377217,0.17995058085645724,0.3742346598871108,2090.871635475253,4758.8807841747785
1.6747738693467338,811.9577665847428,811.2345659745604,0.17231349131564652,0.293675482106905,0.179824847487274,0.37423465988711085,2090.6597048963085,4761.403350068309
1.6770999441652708,812.1415566080798,811.4223944612938,0.17264307317922,0.2937995562240033,0.1797007733701757,0.37423465988711097,2090.4505710789344,4763.924377062334
1.679426018983808,812.3240128045462,811.6089816870899,0.1729682413609463,0.29392196877006604,0.17957836082411288,0.3742346598871111,2090.24423793185,4766.4438610044035
1.6817520938023451,812.5051262655049,811.794308059452,0.1732890024612217,0.2940427222298731,0.17945760736430585,0.37423465988711113,2090.0407012668206,4768.961797701516
1.684078168620882,812.6848919003061,811.978357495238,0.17360537524838662,0.2941618236689384,0.1793385059252406,0.37423465988711124,2089.839949174531,4771.478182939589
1.6864042434394193,812.8633083150595,812.1611174149012,0.1739173899624559,0.29427928447139295,0.17922104512278597,0.37423465988711135,2089.641962466395,4773.993012502305
1.6887303182579565,813.0403776607773,812.3425787036798,0.17422508753602584,0.29439512004668844,0.1791052095474905,0.3742346598871114,2089.446715168926,4776.506282189201
1.6910563930764937,813.2161054558521,812.5227356424592,0.17452851875344383,0.29450934951305835,0.17899098008112063,0.3742346598871115,2089.254175057279,4779.017987832834
1.6933824678950309,813.3905003879036,812.7015858114261,0.17482774336857065,0.29462199536539196,0.17887833422878702,0.37423465988711163,2089.064304215069,4781.528125314937
1.6957085427135679,813.5635740999404,812.8791299698977,0.1751228292001793,0.2947330831346887,0.17876724645949021,0.37423465988711174,2088.8770596083777,4784.036690581471
1.698034617532105,813.7353409655556,813.0553719158585,0.17541385122228717,0.2948426410456056,0.17865768854857336,0.3742346598871118,2088.692393662978,4786.543679656508
1.7003606923506422,813.905817857534,813.230318328763,0.17570089066464073,0.294950699677826,0.17854962991635295,0.3742346598871119,2088.510254835114,4789.049088654921
1.7026867671691794,814.0750239138255,813.403978599099,0.17598403413629368,0.29505729163612304,0.1784430379580559,0.374234659887112,2088.33058816763,4791.552913793847
1.7050128419877166,814.2429803043822,813.5763646480609,0.1762633727829865,0.29516245123314716,0.17833787836103182,0.37423465988711213,2088.153335824647,4794.0551514029485
1.7073389168062534,814.409710001873,813.7474907404826,0.1765390014867748,0.2952662141881189,0.1782341154060601,0.37423465988711224,2087.978437599435,4796.555797933464
1.7096649916247906,814.5752375587901,813.9173732939167,0.17681101811422056,0.2953686173438036,0.17813171225037533,0.37423465988711235,2087.805831391465,4799.054849966116
1.7119910664433278,814.7395888929966,814.0860306864755,0.1770795228175402,0.29546969840342235,0.17803063119075663,0.3742346598871124,2087.6354536498643,4801.552304217875
1.714317141261865,814.9027910833024,814.2534830657311,0.17734461739131388,0.2955694956884789,0.17793083390570008,0.3742346598871125,2087.467239781609,4804.048157547674
1.7166432160804022,815.06487217629,814.4197521606961,0.17760640468603814,0.29566804791798657,0.17783228167619242,0.37423465988711263,2087.3011245236507,4806.542406961105
1.7189692908989394,815.2258610051746,814.5848610985624,0.17786498807826084,0.29576539400899543,0.17773493558518352,0.37423465988711274,2087.13704227914,4809.035049614173
1.7212953657174763,815.3857870212424,814.7488342276279,0.17812047099633901,0.29586157289805975,0.17763875669611923,0.37423465988711285,2086.9749274183514,4811.526082816163
1.7236214405360135,815.5446801380733,814.9116969475317,0.17837295649978144,0.29595662338287726,0.17754370621130167,0.37423465988711296,2086.81471454561,4814.015504031705
1.7259475153545507,815.7025705885569,815.0734755476877,0.17862254690968227,0.296050583983163,0.17744974561101598,0.3742346598871131,2086.656338733796,4816.503310882087
1.7282735901730877,815.8594887945113,815.2341970545625,0.17886934348725717,0.2961434928196307,0.17735683677454825,0.3742346598871132,2086.4997357283287,4818.989501145886
1.7305996649916249,816.0154652485635,815.3938890882459,0.1791134461572062,0.2962353875098508,0.17726494208432814,0.3742346598871133,2086.344842122703,4821.474072758994
1.732925739810162,816.1705304078329,815.5525797285771,0.17935495327248815,0.2963263050796972,0.17717402451448172,0.3742346598871134,2086.1915955077516,4823.9570238140905
1.7352518146286993,816.324714598873,815.7102973909334,0.17959396141700226,0.29641628188906516,0.1770840477051138,0.3742346598871135,2086.0399345968513,4826.438352559615
1.7375778894472362,816.4780479332604,815.8670707116546,0.1798305652427114,0.29650535357055463,0.17699497602362432,0.37423465988711363,2085.889799329275,4828.918057398317
1.7399039642657732,816.6305602331811,816.0229284429622,0.18006485733781877,0.29659355497984446,0.17690677461433452,0.37423465988711374,2085.7411309538397,4831.396136885417
1.7422300390843104,816.7822809663605,816.1778993571517,0.18029692812282375,0.2966809201565614,0.1768194094376176,0.37423465988711385,2085.593872094863,4833.872589726435
1.7445561139028476,816.9332391896413,816.3320121597445,0.18052686577130425,0.296767482294458,0.176732847299721,0.37423465988711396,2085.4479668024314,4836.347414774733
1.7468821887213846,817.0834635005415,816.4852954112399,0.18075475615257186,0.29685327371982456,0.17664705587435436,0.3742346598871141,2085.3033605887867,4838.8206110288165
1.7492082635399218,817.2329819961466,816.6377774570676,0.1809806827935746,0.29693832587714736,0.1765620037170316,0.3742346598871142,2085.1600004525,4841.292177629423
1.751534338358459,817.3818222386919,816.7894863653021,0.18120472685755398,0.29702266932107335,0.17647766027310557,0.3742346598871143,2085.0178348920167,4843.762113856448
1.7538604131769961,817.5300112272262,816.9404498716852,0.1814269671372163,0.29710633371384,0.17639399588033897,0.3742346598871144,2084.8768139099875,4846.230419125724
1.7561864879955333,817.677575374782,817.0906953314924,0.18164748006039602,0.29718934782740686,0.1763109817667721,0.3742346598871145,2084.736889009676,4848.697092985701
1.7585125628140703,817.8245404905031,817.240249677773,0.18186633970634936,0.29727173954958985,0.17622859004458913,0.37423465988711463,2084.5980131846195,4851.162135114031
1.7608386376326075,817.9709317662378,817.3891393855114,0.1820836178311308,0.2973535358936141,0.17614679370056485,0.37423465988711474,2084.4601409025263,4853.625545314107
1.7631647124511447,818.1167737670804,817.5373904412315,0.18229938390038103,0.29743476301045757,0.17606556658372138,0.3742346598871149,2084.3232280844695,4856.087323511544
1.765490787269682,818.2620904254724,817.6850283176284,0.18251370512847329,0.2975154462035879,0.17598488339059104,0.374234659887115,2084.1872320800494,4858.5474697506625
1.767816862088219,818.4069050384148,817.8320779527808,0.18272664652267204,0.29759560994558637,0.17590471964859258,0.37423465988711513,2084.0521116393707,4861.005984190944
1.7701429369067558,818.5512402674445,817.9785637335494,0.18293827093141057,0.2976752778963224,0.17582505169785656,0.37423465988711524,2083.9178268824085,4863.462867103515
1.772469011725293,818.6951181410127,818.1245094827646,0.1831486390957242,0.29775447292231616,0.17574585667186277,0.37423465988711535,2083.784339266373,4865.918118867643
1.7747950865438302,818.8385600589754,818.269938449844,0.18335780970315635,0.29783321711703203,0.17566711247714692,0.3742346598871155,2083.651611551503,4868.371739967266
1.7771211613623674,818.9815867988915,818.4148733044925,0.18356583944338375,0.29791153182181895,0.17558879777236,0.37423465988711563,2083.5196077657683,4870.82373098757
1.7794472361809046,819.1242185238762,818.5593361331569,0.1837727830650035,0.2979894376472888,0.17551089194689018,0.37423465988711574,2083.388293168838,4873.274092611612
1.7817733109994418,819.2664747917993,818.7033484379494,0.18397869343308662,0.2980669544949826,0.17543337509919632,0.37423465988711585,2083.2576342155594,4875.722825616999
1.7840993858179788,819.4083745655853,818.8469311377451,0.18418362158692242,0.2981441015791093,0.17535622801506962,0.374234659887116,2083.1275985193156,4878.169930872634
1.786425460636516,819.5499362244547,818.9901045712062,0.18438761679771887,0.2982208974482673,0.17527943214591166,0.37423465988711613,2082.9981548154133,4880.615409335524
1.7887515354550532,819.6911775759232,819.1328885014915,0.184590726625893,0.29829736000701196,0.17520296958716697,0.37423465988711624,2082.8692729247296,4883.059262047667
1.7910776102735901,819.8321158684198,819.2753021224347,0.18479299697773802,0.29837350653718875,0.1751268230569902,0.3742346598871164,2082.740923717755,4885.5014901330005
1.7934036850921273,819.9727678043837,819.4173640659934,0.18499447216124792,0.29844935371894854,0.1750509758752304,0.3742346598871165,2082.613079079167,4887.9420947944345
1.7957297599106645,820.1131495537285,819.5590924107867,0.18519519494093975,0.2985249176513862,0.17497541194279273,0.3742346598871166,2082.485711873048,4890.3810773109635
1.7980558347292017,820.2532767675616,819.7005046915544,0.18539520659151368,0.2986002138727415,0.17490011572143746,0.3742346598871168,2082.3587959088304,4892.818439034851
1.8003819095477387,820.3931645920755,819.8416179093933,0.18559454695027985,0.29867525738013534,0.17482507221404364,0.3742346598871169,2082.2323059080354,4895.254181388893
1.8027079843662757,820.5328276825265,819.9824485426312,0.18579325446824493,0.29875006264880205,0.17475026694537693,0.374234659887117,2082.10621747185,4897.688305863771
1.8050340591848129,820.6722802172305,820.1230125582197,0.18599136625980828,0.29882464365079786,0.1746756859433811,0.3742346598871172,2081.9805070495977,4900.120814015475
1.80736013400335,820.8115359115158,820.263325423535,0.18618891815100722,0.2988990138731633,0.17460131572101564,0.3742346598871173,2081.8551519081225,4902.551707462802
1.809686208821887,820.9506080315886,820.4034021184963,0.1863859447263433,0.2989731863355514,0.17452714325862756,0.37423465988711746,2081.7301301020757,4904.980987884945
1.8120122836404242,821.0895094082518,820.5432571479053,0.18658247937408923,0.2990471736072838,0.17445315598689518,0.37423465988711757,2081.605420445167,4907.408657019147
1.8143383584589614,821.2282524504474,820.6829045539354,0.18677855433012625,0.29912098782385377,0.17437934177032519,0.37423465988711774,2081.481002482349,4909.834716658439
1.8166644332774986,821.3668491585921,820.8223579287055,0.18697420072032336,0.29919464070288043,0.17430568889129855,0.37423465988711785,2081.356856462924,4912.259168649451
1.8189905080960358,821.5053111376797,820.961630426875,0.1871694486014627,0.29926814355951514,0.1742321860346638,0.374234659887118,2081.2329633145746,4914.682014890287
1.821316582914573,821.6436496101205,821.1007347782081,0.18736432700071456,0.29934150732130266,0.17415882227287632,0.3742346598871181,2081.1093046183178,4917.103257328487
1.8236426577331102,821.7818754283009,821.2396833000611,0.18755886395367619,0.2994147425425007,0.17408558705167823,0.3742346598871183,2080.985862584366,4919.522897959047
1.8259687325516474,821.9199990868592,821.3784879097576,0.18775308654106765,0.29948785941789496,0.17401247017628396,0.3742346598871184,2080.862620028841,4921.940938822512
1.8282948073701843,822.0580307346679,821.5171601368193,0.18794702092409918,0.29956086779611313,0.17393946179806583,0.37423465988711857,2080.7395603513337,4924.3573820031315
1.8306208821887215,822.1959801864845,821.6557111350099,0.18814069237843517,0.29963377719241097,0.173866552401768,0.3742346598871187,2080.6166675133522,4926.772229627086
1.8329469570072583,822.3338569343045,821.7941516941864,0.18833412532695223,0.2997065968010045,0.17379373279317448,0.37423465988711885,2080.4939260175347,4929.185483860768
1.8352730318257955,822.4716701583945,821.9324922519265,0.188527343371251,0.29977933550693286,0.1737209940872461,0.374234659887119,2080.371320887654,4931.5971469091355
1.8375991066443327,822.6094287380027,822.0707429049194,0.18872036932195838,0.2998520018974659,0.173648327696713,0.3742346598871191,2080.2488376493893,4934.007221014108
1.8399251814628699,822.7471412617522,822.2089134201042,0.18891322522787327,0.2999246042730764,0.17357572532110255,0.3742346598871193,2080.126462311833,4936.415708453036
1.842251256281407,822.8848160377102,822.3470132455463,0.1891059324039712,0.2999971506579824,0.1735031789361966,0.37423465988711946,2080.00418134972,4938.822611537215
1.8445773310999443,823.0224611031462,822.4850515210429,0.189298511458342,0.30006964881028836,0.17343068078389057,0.37423465988711957,2079.881981686334,4941.22793261046
1.8469034059184812,823.1600842339841,822.6230370884575,0.18949098231811268,0.3001421062317443,0.17335822336243467,0.37423465988711974,2079.7598506770582,4943.631674047724
1.8492294807370184,823.2976929539474,822.7609785017743,0.18968336425436122,0.30021453017712424,0.17328579941705471,0.3742346598871199,2079.6377760935684,4946.0338382537775
1.8515555555555556,823.4352945433851,822.898884036863,0.18987567590599047,0.30028692766321424,0.17321340193096468,0.37423465988712007,2079.5157461086815,4948.434427661924
1.8538816303740928,823.5728960478302,823.0367617009736,0.1900679353027946,0.30035930547749584,0.17314102411668314,0.3742346598871202,2079.393749281721,4950.833444732774
1.85620770519263,823.7105042862487,823.1746192419411,0.190260159887542,0.30043167018645917,0.1730686594077198,0.37423465988712035,2079.2717745445025,4953.230891953054
1.8585337800111672,823.8481258590199,823.3124641571156,0.1904523665372622,0.30050402814361693,0.17299630145056202,0.3742346598871205,2079.149811187827,4955.626771834467
1.8608598548297042,823.9857671556346,823.450303702014,0.19064457158367618,0.30057638549719534,0.1729239440969836,0.3742346598871207,2079.0278488485183,4958.021086912587
1.8631859296482414,824.1234343621268,823.588144898696,0.1908367908328408,0.30064874819752957,0.17285158139664938,0.37423465988712085,2078.9058774969553,4960.413839745805
1.8655120044667786,824.2611334682541,823.7259945438775,0.19102903958407613,0.30072112200418905,0.17277920758998988,0.37423465988712096,2078.783887425064,4962.805032914302
1.8678380792853158,824.3988702744066,823.8638592167698,0.19122133264808047,0.3007935124927971,0.17270681710138186,0.3742346598871211,2078.6618692348225,4965.194669019067
1.870164154103853,824.5366503983006,824.0017452866734,0.19141368436448167,0.3008659250616382,0.17263440453254075,0.3742346598871213,2078.5398138271207,4967.582750680952
1.8724902289223901,824.6744792814025,824.1396589203035,0.19160610861856883,0.30093836493795684,0.17256196465622212,0.37423465988712146,2078.4177123911486,4969.9692805397535
1.874816303740927,824.8123621951585,824.2776060888849,0.19179861885754787,0.3010108371840771,0.17248949241010186,0.3742346598871216,2078.2955563940777,4972.354261253338
1.877142378559464,824.9503042469674,824.4155925749897,0.19199122810602215,0.30108334670323045,0.1724169828909485,0.3742346598871218,2078.173337571239,4974.737695496799
1.879468453378001,825.0883103859729,824.5536239791551,0.19218394898103505,0.30115589824521866,0.1723444313489603,0.37423465988712196,2078.051047916577,4977.119585961631
1.8817945281965383,825.2263854086203,824.6917057262615,0.19237679370642732,0.30122849641181876,0.1722718331823602,0.3742346598871221,2077.9286796735414,4979.499935354955
1.8841206030150754,825.3645339640309,824.8298430716964,0.19256977412672519,0.3013011456620113,0.17219918393216765,0.3742346598871223,2077.8062253262733,4981.878746398756
1.8864466778336126,825.5027605591765,824.9680411072999,0.1927629017204843,0.301373850317004,0.17212647927717498,0.37423465988712246,2077.683677591136,4984.256021829159
1.8887727526521498,825.6410695638792,825.106304767108,0.19295618761318378,0.3014466145650854,0.17205371502909353,0.3742346598871226,2077.5610294085373,4986.6317643957245
1.8910988274706868,825.7794652156175,825.2446388328872,0.19314964258957903,0.3015194424662758,0.17198088712790313,0.3742346598871228,2077.4382739350867,4989.005976860775
1.893424902289224,825.9179516241595,825.3830479394744,0.19334327710560303,0.30159233795680707,0.1719079916373719,0.37423465988712296,2077.3154045360475,4991.378661998744
1.8957509771077607,826.056532776053,825.5215365799379,0.19353710129992452,0.3016653048534741,0.17183502474070486,0.3742346598871231,2077.192414777999,4993.74982259555
1.898077051926298,826.1952125389216,825.660109110542,0.19373112500494558,0.3017383468577749,0.17176198273640408,0.3742346598871233,2077.0692984218617,4996.119461447992
1.9004031267448351,826.3339946656397,825.7987697555494,0.19392535775753617,0.30181146755995164,0.17168886203422734,0.37423465988712346,2076.946049416082,4998.487581363171
1.9027292015633723,826.4728827983275,825.9375226118409,0.19411980880925037,0.3018846704428368,0.1716156591513422,0.3742346598871236,2076.822661890153,5000.854185157929
1.9050552763819095,826.6118804722345,826.0763716533831,0.19431448713630303,0.3019579588856088,0.1715423707085702,0.37423465988712384,2076.6991301482813,5003.219275658313
1.9073813512004467,826.7509911194568,826.2153207355277,0.1945094014490729,0.30203133616736966,0.17146899342680932,0.374234659887124,2076.575448663358,5005.58285569905
1.9097074260189837,826.890218072548,826.3543735991676,0.19470456020137286,0.30210480547063484,0.17139552412354414,0.3742346598871242,2076.4516120710773,5007.944928123054
1.9120335008375209,827.0295645679774,826.4935338747367,0.19489997159928454,0.30217836988465907,0.1713219597095199,0.37423465988712434,2076.327615164328,5010.3054957809445
1.914359575656058,827.1690337494906,826.6328050860768,0.19509564360978557,0.30225203240868415,0.17124829718549478,0.3742346598871245,2076.203452887722,5012.664561530579
1.9166856504745953,827.3086286713265,826.7721906541592,0.19529158396896623,0.30232579595503234,0.1711745336391466,0.37423465988712473,2076.079120332378,5015.02212823661
1.9190117252931325,827.4483523013446,826.9116939006828,0.19548780019005743,0.30239966335212837,0.17110066624205061,0.3742346598871249,2075.954612730829,5017.378198770059
1.9213378001116697,827.5882075240316,827.0513180515426,0.19568429957112732,0.30247363734739685,0.1710266922467821,0.37423465988712507,2075.829925452138,5019.732776007895
1.9236638749302066,827.728197143399,827.1910662401725,0.19588108920249758,0.3025477206100545,0.17095260898412443,0.3742346598871253,2075.7050539971924,5022.085862832645
1.9259899497487438,827.868323885788,827.3309415107765,0.19607817597393645,0.30262191573381786,0.17087841386036107,0.37423465988712545,2075.5799939941385,5024.437462132007
1.928316024567281,828.008590402572,827.4709468214419,0.19627556658158252,0.30269622523950973,0.17080410435466922,0.3742346598871256,2075.4547411939893,5026.787576798479
1.9306420993858182,828.1489992727656,827.6110850471456,0.1964732675346273,0.30277065157757493,0.17072967801660402,0.37423465988712584,2075.329291466385,5029.136209729009
1.9329681742043554,828.2895530055507,827.7513589826582,0.19667128516180796,0.3028451971305247,0.17065513246365427,0.374234659887126,2075.203640795469,5031.483363824653
1.9352942490228926,828.4302540426991,827.8917713453391,0.19686962561759835,0.3029198642152672,0.17058046537891178,0.3742346598871262,2075.0777852759643,5033.82904199024
1.9376203238414293,828.5711047609382,828.0323247778466,0.19706829488831135,0.3029946550854048,0.17050567450877419,0.3742346598871264,2074.9517211093,5036.173247134062
1.9399463986599665,828.7121074741979,828.1730218507381,0.1972672987978209,0.3030695719333883,0.17043075766079063,0.37423465988712656,2074.825444599977,5038.515982167569
1.9422724734785035,828.8532644358277,828.3138650649989,0.19746664301330535,0.3031446168926791,0.17035571270149988,0.3742346598871268,2074.6989521519286,5040.857250005073
1.9445985482970407,828.994577840696,828.4548568544685,0.1976663330506038,0.3032197920397653,0.17028053755441366,0.37423465988712695,2074.572240265118,5043.197053563469
1.946924623115578,829.1360498272356,828.5959995881875,0.19786637427947384,0.3032950993961415,0.17020523019803743,0.3742346598871272,2074.4453055322047,5045.535395761961
1.949250697934115,829.2776824794292,828.737295572671,0.19806677192871228,0.30337054093023624,0.1701297886639427,0.37423465988712734,2074.3181446352924,5047.872279521804
1.9515767727526523,829.4194778287095,828.878747054094,0.19826753109102496,0.30344611855924536,0.17005421103493357,0.37423465988712756,2074.1907543428406,5050.207707766052
1.9539028475711895,829.5614378558056,829.0203562204085,0.19846865672778044,0.3035218341509216,0.16997849544325733,0.3742346598871278,2074.0631315066494,5052.541683419319
1.9562289223897267,829.703564492529,829.1621252033874,0.19867015367360874,0.3035976895253058,0.16990264006887315,0.37423465988712795,2073.9352730589376,5054.874209407542
1.9585549972082639,829.8458596234988,829.304056080601,0.19887202664084758,0.3036736864564007,0.16982664313777823,0.3742346598871282,2073.8071760095263,5057.205288657765
1.9608810720268008,829.98832508779,829.446150877315,0.19907428022375642,0.3037498266737575,0.16975050292042146,0.3742346598871284,2073.67883744316,5059.534924097918
1.963207146845338,830.1309626805647,829.5884115683438,0.19927691890275548,0.30382611186407144,0.16967421773010752,0.37423465988712856,2073.55025451682,5061.863118656614
1.9655332216638752,830.2737741546118,829.7308400798232,0.19947994704836533,0.3039025436726651,0.16959778592151384,0.3742346598871288,2073.4214244572245,5064.189875262955
1.9678592964824122,830.4167612218577,829.8734382909337,0.19968336892510966,0.3039791237049576,0.16952120588922132,0.374234659887129,2073.2923445583497,5066.515196846336
1.9701853713009492,830.5599255548188,830.0162080355624,0.19988718869526076,0.30405585352787456,0.1694444760663044,0.3742346598871292,2073.163012179056,5068.839086336266
1.9725114461194864,830.7032687880059,830.159151103909,0.20009141042245157,0.3041327346712079,0.1693675949229711,0.3742346598871294,2073.0334247407936,5071.161546662189
1.9748375209380236,830.8467925192876,830.3022692440413,0.20029603807520593,0.30420976862894467,0.16929056096523426,0.3742346598871296,2072.903579725364,5073.482580753322
1.9771635957565608,830.9904983111946,830.4455641633906,0.20050107553027977,0.3042869568605254,0.16921337273365353,0.37423465988712984,2072.7734746728006,5075.802191538487
1.9794896705750977,831.1343876922089,830.5890375302121,0.20070652657602264,0.304364300792109,0.16913602880206993,0.37423465988713006,2072.6431071792317,5078.120381945961
1.981815745393635,831.2784621579721,830.732690974978,0.2009123949154574,0.3044418018177324,0.16905852777644656,0.3742346598871303,2072.5124748949315,5080.437154903323
1.9841418202121721,831.4227231724883,830.8765260917398,0.20111868416940826,0.30451946130048807,0.16898086829369088,0.37423465988713045,2072.381575522332,5082.7525133373165
1.986467895030709,831.5671721692686,831.0205444394376,0.2013253978794478,0.30459728057363356,0.1689030490205454,0.37423465988713067,2072.2504068141525,5085.066460173707
1.9887939698492463,831.7118105524409,831.1647475431666,0.20153253951075725,0.3046752609416681,0.16882506865251087,0.3742346598871309,2072.1189665715883,5087.378998337155
1.9911200446677835,831.8566396978251,831.3091368954028,0.2017401124549032,0.30475340368137804,0.16874692591280088,0.3742346598871311,2071.9872526425443,5089.69013075109
1.9934461194863207,832.0016609539839,831.4537139571933,0.2019481200325665,0.30483171004286425,0.16866861955131468,0.37423465988713134,2071.8552629199066,5091.999860337586
1.9957721943048579,832.1468756432156,831.5984801592965,0.20215656549608266,0.3049101812504982,0.16859014834368075,0.37423465988713156,2071.7229953399287,5094.308190017254
1.998098269123395,832.2922850625316,831.7434369032928,0.20236545203197515,0.30498881850387594,0.16851151109030302,0.3742346598871318,2071.5904478806247,5096.615122709124
2.000424343941932,832.4378904846029,831.8885855626581,0.20257478276340485,0.30506762297874,0.16843270661543897,0.374234659887132,2071.4576185602155,5098.920661330544
2.002750418760469,832.5836931586641,832.0339274837985,0.2027845607524944,0.3051465958278546,0.16835373376632437,0.3742346598871323,2071.324505435653,5101.224808797078
2.0050764935790064,832.7296943113957,832.1794639870528,0.2029947890026068,0.3052257381818632,0.16827459141231574,0.3742346598871325,2071.1911066011744,5103.5275680224095
2.007402568397543,832.8758951477764,832.3251963676626,0.2032054704605464,0.30530505115011747,0.16819527844406146,0.3742346598871327,2071.0574201869063,5105.828941918247
